C:\Users\geste_000\Documents\MatLab Analysis\PSU\(111) Dense\clamped files\350.t
2-Theta Angle (Degrees)
Intensity
       1500
 5.1021564E-01  9.8751007E+02
 5.1325899E-01  9.6924255E+02
 5.1630241E-01  9.9125610E+02
 5.1934576E-01  1.0538154E+03
 5.2238917E-01  1.0013669E+03
 5.2543253E-01  9.9961670E+02
 5.2847594E-01  1.0773639E+03
 5.3151929E-01  1.0673604E+03
 5.3456271E-01  1.0371660E+03
 5.3760606E-01  9.3949939E+02
 5.4064947E-01  9.5642773E+02
 5.4369283E-01  1.0898512E+03
 5.4673624E-01  1.0598539E+03
 5.4977959E-01  9.9870874E+02
 5.5282301E-01  9.4762164E+02
 5.5586636E-01  9.3001740E+02
 5.5890977E-01  9.7752313E+02
 5.6195313E-01  9.7316388E+02
 5.6499654E-01  9.3799664E+02
 5.6803989E-01  9.9993323E+02
 5.7108331E-01  1.0378824E+03
 5.7412666E-01  1.0063503E+03
 5.7717007E-01  1.0105667E+03
 5.8021343E-01  1.0255559E+03
 5.8325684E-01  1.0115801E+03
 5.8630019E-01  9.5461646E+02
 5.8934361E-01  9.5002814E+02
 5.9238696E-01  1.0060637E+03
 5.9543037E-01  1.0282886E+03
 5.9847373E-01  1.0388606E+03
 6.0151714E-01  1.0711085E+03
 6.0456049E-01  1.0204871E+03
 6.0760391E-01  1.0486595E+03
 6.1064726E-01  1.0953907E+03
 6.1369067E-01  1.0057114E+03
 6.1673403E-01  9.6719196E+02
 6.1977744E-01  9.6220599E+02
 6.2282079E-01  1.0025200E+03
 6.2586421E-01  1.0801692E+03
 6.2890756E-01  1.0859877E+03
 6.3195097E-01  1.0703383E+03
 6.3499433E-01  1.0196260E+03
 6.3803774E-01  9.9390723E+02
 6.4108109E-01  9.5612628E+02
 6.4412451E-01  1.0305979E+03
 6.4716786E-01  1.0706764E+03
 6.5021127E-01  1.0122526E+03
 6.5325463E-01  1.0117933E+03
 6.5629804E-01  1.0812570E+03
 6.5934139E-01  1.0520996E+03
 6.6238481E-01  1.0119529E+03
 6.6542816E-01  1.0437065E+03
 6.6847157E-01  1.0544004E+03
 6.7151493E-01  9.8200311E+02
 6.7455834E-01  1.0165524E+03
 6.7760170E-01  1.0876498E+03
 6.8064511E-01  1.1212872E+03
 6.8368846E-01  1.0910706E+03
 6.8673187E-01  9.5849939E+02
 6.8977523E-01  1.0062985E+03
 6.9281864E-01  1.0165378E+03
 6.9586200E-01  9.9477814E+02
 6.9890541E-01  1.0425529E+03
 7.0194876E-01  1.0084801E+03
 7.0499218E-01  1.0065659E+03
 7.0803553E-01  1.0268230E+03
 7.1107894E-01  8.8797473E+02
 7.1412230E-01  8.3607391E+02
 7.1716571E-01  8.1780823E+02
 7.2020906E-01  9.0573615E+02
 7.2325248E-01  1.0224097E+03
 7.2629583E-01  9.7875336E+02
 7.2933924E-01  9.6132050E+02
 7.3238260E-01  1.0417362E+03
 7.3542601E-01  1.0913453E+03
 7.3846936E-01  1.1283993E+03
 7.4151278E-01  1.1090677E+03
 7.4455613E-01  1.0906583E+03
 7.4759954E-01  1.0633080E+03
 7.5064290E-01  1.0428606E+03
 7.5368631E-01  1.0482113E+03
 7.5672966E-01  1.0314559E+03
 7.5977308E-01  1.0598595E+03
 7.6281643E-01  1.1946648E+03
 7.6585984E-01  1.1146317E+03
 7.6890320E-01  9.1585669E+02
 7.7194661E-01  1.0997346E+03
 7.7498996E-01  1.1910629E+03
 7.7803338E-01  1.0793351E+03
 7.8107673E-01  1.0234164E+03
 7.8412014E-01  1.0113145E+03
 7.8716350E-01  1.0559344E+03
 7.9020691E-01  1.0460265E+03
 7.9325026E-01  1.0606660E+03
 7.9629368E-01  1.0629050E+03
 7.9933703E-01  1.0033146E+03
 8.0238044E-01  1.0334269E+03
 8.0542380E-01  1.0324109E+03
 8.0846721E-01  1.0096011E+03
 8.1151056E-01  1.1053882E+03
 8.1455398E-01  1.1822758E+03
 8.1759733E-01  1.1327227E+03
 8.2064074E-01  1.1367288E+03
 8.2368410E-01  1.0775707E+03
 8.2672751E-01  1.0499989E+03
 8.2977086E-01  1.1138475E+03
 8.3281428E-01  1.1281863E+03
 8.3585763E-01  1.1021362E+03
 8.3890104E-01  1.0881649E+03
 8.4194440E-01  1.0517222E+03
 8.4498781E-01  1.0994906E+03
 8.4803116E-01  1.1607242E+03
 8.5107458E-01  1.1517112E+03
 8.5411793E-01  1.0826552E+03
 8.5716134E-01  1.0834167E+03
 8.6020470E-01  1.0511453E+03
 8.6324811E-01  1.0066326E+03
 8.6629146E-01  1.0037394E+03
 8.6933488E-01  1.1014026E+03
 8.7237823E-01  1.1148167E+03
 8.7542164E-01  1.0490674E+03
 8.7846500E-01  1.0317683E+03
 8.8150841E-01  1.0163902E+03
 8.8455176E-01  1.0396630E+03
 8.8759518E-01  1.0626469E+03
 8.9063853E-01  1.1305696E+03
 8.9368194E-01  1.1284348E+03
 8.9672530E-01  1.0543470E+03
 8.9976871E-01  1.0382582E+03
 9.0281206E-01  1.0356708E+03
 9.0585548E-01  1.0923870E+03
 9.0889883E-01  1.1347155E+03
 9.1194224E-01  1.1116522E+03
 9.1498560E-01  1.1029020E+03
 9.1802901E-01  1.0911049E+03
 9.2107236E-01  9.7696857E+02
 9.2411578E-01  9.9022412E+02
 9.2715913E-01  1.0477437E+03
 9.3020254E-01  1.0973641E+03
 9.3324590E-01  1.1203906E+03
 9.3628931E-01  1.0907469E+03
 9.3933266E-01  1.0863914E+03
 9.4237608E-01  1.0785455E+03
 9.4541943E-01  1.1255784E+03
 9.4846284E-01  1.0982863E+03
 9.5150620E-01  1.0572089E+03
 9.5454961E-01  1.1012358E+03
 9.5759296E-01  1.1024192E+03
 9.6063638E-01  1.1182719E+03
 9.6367973E-01  1.1152759E+03
 9.6672314E-01  1.0694719E+03
 9.6976650E-01  1.0745304E+03
 9.7280991E-01  1.0119001E+03
 9.7585326E-01  1.0999076E+03
 9.7889668E-01  1.1214934E+03
 9.8194003E-01  1.0492942E+03
 9.8498344E-01  1.0755927E+03
 9.8802680E-01  1.0510740E+03
 9.9107021E-01  1.0702639E+03
 9.9411356E-01  1.1441290E+03
 9.9715698E-01  1.1610725E+03
 1.0002004E+00  1.1746941E+03
 1.0032437E+00  1.1683781E+03
 1.0062871E+00  1.1037236E+03
 1.0093305E+00  1.0904803E+03
 1.0123739E+00  1.1059017E+03
 1.0154172E+00  1.1127599E+03
 1.0184606E+00  1.0611317E+03
 1.0215040E+00  1.0485674E+03
 1.0245475E+00  1.0873140E+03
 1.0275908E+00  1.0945126E+03
 1.0306342E+00  1.0785061E+03
 1.0336776E+00  1.0532280E+03
 1.0367210E+00  1.0615801E+03
 1.0397643E+00  1.1200881E+03
 1.0428077E+00  1.1789391E+03
 1.0458511E+00  1.1358197E+03
 1.0488945E+00  1.1165061E+03
 1.0519378E+00  1.1171763E+03
 1.0549812E+00  1.1587826E+03
 1.0580246E+00  1.1514780E+03
 1.0610681E+00  1.0880668E+03
 1.0641114E+00  1.0498658E+03
 1.0671548E+00  1.1168066E+03
 1.0701982E+00  1.1750718E+03
 1.0732416E+00  1.1053445E+03
 1.0762849E+00  1.1094938E+03
 1.0793283E+00  1.1486643E+03
 1.0823717E+00  1.1762255E+03
 1.0854151E+00  1.1663719E+03
 1.0884584E+00  1.0903177E+03
 1.0915018E+00  1.0081260E+03
 1.0945452E+00  9.6298413E+02
 1.0975887E+00  1.0971149E+03
 1.1006320E+00  1.1812457E+03
 1.1036754E+00  1.1390236E+03
 1.1067188E+00  1.0957518E+03
 1.1097622E+00  1.0944324E+03
 1.1128055E+00  1.1095779E+03
 1.1158489E+00  1.0965912E+03
 1.1188923E+00  1.1387307E+03
 1.1219357E+00  1.1625466E+03
 1.1249790E+00  1.0971898E+03
 1.1280224E+00  1.0681860E+03
 1.1310658E+00  1.0923500E+03
 1.1341093E+00  1.1698412E+03
 1.1371526E+00  1.1768481E+03
 1.1401960E+00  1.1580160E+03
 1.1432394E+00  1.1467974E+03
 1.1462828E+00  1.1004708E+03
 1.1493261E+00  1.0683107E+03
 1.1523695E+00  1.0372919E+03
 1.1554129E+00  1.0370751E+03
 1.1584562E+00  1.0624260E+03
 1.1614996E+00  1.1067313E+03
 1.1645430E+00  1.1337070E+03
 1.1675864E+00  1.1142330E+03
 1.1706297E+00  1.1253062E+03
 1.1736732E+00  1.1459388E+03
 1.1767166E+00  1.1611022E+03
 1.1797600E+00  1.1771742E+03
 1.1828033E+00  1.2198418E+03
 1.1858467E+00  1.1509944E+03
 1.1888901E+00  1.0723060E+03
 1.1919335E+00  1.1002670E+03
 1.1949768E+00  1.1293505E+03
 1.1980202E+00  1.1252753E+03
 1.2010636E+00  1.1027921E+03
 1.2041070E+00  1.1325719E+03
 1.2071503E+00  1.1736985E+03
 1.2101938E+00  1.1879803E+03
 1.2132372E+00  1.2050670E+03
 1.2162806E+00  1.2204495E+03
 1.2193239E+00  1.2135056E+03
 1.2223673E+00  1.1861027E+03
 1.2254107E+00  1.1600302E+03
 1.2284541E+00  1.1372039E+03
 1.2314974E+00  1.1176747E+03
 1.2345408E+00  1.1371429E+03
 1.2375842E+00  1.1583181E+03
 1.2406276E+00  1.2076609E+03
 1.2436709E+00  1.2370485E+03
 1.2467144E+00  1.1956046E+03
 1.2497578E+00  1.1686393E+03
 1.2528012E+00  1.1540535E+03
 1.2558445E+00  1.1371354E+03
 1.2588879E+00  1.1319099E+03
 1.2619313E+00  1.1907903E+03
 1.2649747E+00  1.1517485E+03
 1.2680180E+00  1.1234819E+03
 1.2710614E+00  1.1186619E+03
 1.2741048E+00  1.0973716E+03
 1.2771482E+00  1.1265608E+03
 1.2801915E+00  1.1579019E+03
 1.2832350E+00  1.1749740E+03
 1.2862784E+00  1.1469412E+03
 1.2893218E+00  1.1425172E+03
 1.2923651E+00  1.2108350E+03
 1.2954085E+00  1.1815153E+03
 1.2984519E+00  1.1334711E+03
 1.3014953E+00  1.2049346E+03
 1.3045386E+00  1.1979067E+03
 1.3075820E+00  1.1179728E+03
 1.3106254E+00  1.0949733E+03
 1.3136688E+00  1.0956202E+03
 1.3167121E+00  1.0930603E+03
 1.3197556E+00  1.1413043E+03
 1.3227990E+00  1.2019779E+03
 1.3258424E+00  1.2267294E+03
 1.3288857E+00  1.2290168E+03
 1.3319291E+00  1.1826202E+03
 1.3349725E+00  1.1644796E+03
 1.3380159E+00  1.1522292E+03
 1.3410592E+00  1.1690847E+03
 1.3441026E+00  1.1758264E+03
 1.3471460E+00  1.1953301E+03
 1.3501894E+00  1.2200242E+03
 1.3532327E+00  1.1335834E+03
 1.3562762E+00  1.1291943E+03
 1.3593196E+00  1.1812993E+03
 1.3623630E+00  1.1674077E+03
 1.3654063E+00  1.1757520E+03
 1.3684497E+00  1.1888639E+03
 1.3714931E+00  1.1845807E+03
 1.3745365E+00  1.1830590E+03
 1.3775798E+00  1.1794039E+03
 1.3806232E+00  1.1859504E+03
 1.3836666E+00  1.2516072E+03
 1.3867100E+00  1.2314734E+03
 1.3897533E+00  1.1941625E+03
 1.3927968E+00  1.2401205E+03
 1.3958402E+00  1.2164705E+03
 1.3988836E+00  1.1556642E+03
 1.4019269E+00  1.1741593E+03
 1.4049703E+00  1.1718540E+03
 1.4080137E+00  1.1533478E+03
 1.4110571E+00  1.1769177E+03
 1.4141004E+00  1.2196995E+03
 1.4171438E+00  1.1836945E+03
 1.4201872E+00  1.1634548E+03
 1.4232306E+00  1.2172582E+03
 1.4262739E+00  1.2500829E+03
 1.4293174E+00  1.2443407E+03
 1.4323608E+00  1.2207152E+03
 1.4354042E+00  1.1832622E+03
 1.4384475E+00  1.1694380E+03
 1.4414909E+00  1.1528904E+03
 1.4445343E+00  1.1903236E+03
 1.4475777E+00  1.1788903E+03
 1.4506210E+00  1.1470581E+03
 1.4536644E+00  1.1795457E+03
 1.4567078E+00  1.1867922E+03
 1.4597512E+00  1.2172615E+03
 1.4627945E+00  1.2451012E+03
 1.4658380E+00  1.2310028E+03
 1.4688814E+00  1.1933470E+03
 1.4719248E+00  1.1529612E+03
 1.4749681E+00  1.1553114E+03
 1.4780115E+00  1.2273436E+03
 1.4810549E+00  1.2725382E+03
 1.4840983E+00  1.2475337E+03
 1.4871416E+00  1.2046616E+03
 1.4901850E+00  1.1872684E+03
 1.4932284E+00  1.2061660E+03
 1.4962718E+00  1.2177670E+03
 1.4993151E+00  1.1963271E+03
 1.5023586E+00  1.2152635E+03
 1.5054020E+00  1.2813057E+03
 1.5084454E+00  1.3347295E+03
 1.5114887E+00  1.3332642E+03
 1.5145321E+00  1.4254602E+03
 1.5175755E+00  1.5008113E+03
 1.5206189E+00  1.4274072E+03
 1.5236622E+00  1.4318453E+03
 1.5267056E+00  1.5140280E+03
 1.5297490E+00  1.4686659E+03
 1.5327924E+00  1.4857963E+03
 1.5358357E+00  1.6248547E+03
 1.5388792E+00  1.6457974E+03
 1.5419226E+00  1.6451067E+03
 1.5449660E+00  1.5945802E+03
 1.5480093E+00  1.4968777E+03
 1.5510527E+00  1.3975219E+03
 1.5540961E+00  1.3856814E+03
 1.5571395E+00  1.3649861E+03
 1.5601828E+00  1.3510320E+03
 1.5632262E+00  1.3405776E+03
 1.5662696E+00  1.3657626E+03
 1.5693130E+00  1.3017108E+03
 1.5723563E+00  1.1822229E+03
 1.5753998E+00  1.1716927E+03
 1.5784432E+00  1.2021941E+03
 1.5814866E+00  1.2302266E+03
 1.5845299E+00  1.2397867E+03
 1.5875733E+00  1.2691130E+03
 1.5906167E+00  1.2154154E+03
 1.5936601E+00  1.1751912E+03
 1.5967034E+00  1.2118951E+03
 1.5997468E+00  1.2344319E+03
 1.6027902E+00  1.2287521E+03
 1.6058336E+00  1.1917877E+03
 1.6088769E+00  1.1964589E+03
 1.6119204E+00  1.1870010E+03
 1.6149638E+00  1.1686353E+03
 1.6180072E+00  1.2305912E+03
 1.6210505E+00  1.2541702E+03
 1.6240939E+00  1.2304332E+03
 1.6271373E+00  1.2244523E+03
 1.6301807E+00  1.2036597E+03
 1.6332240E+00  1.1934690E+03
 1.6362674E+00  1.2480864E+03
 1.6393108E+00  1.2510011E+03
 1.6423542E+00  1.2480916E+03
 1.6453975E+00  1.2569965E+03
 1.6484410E+00  1.2709866E+03
 1.6514844E+00  1.2151506E+03
 1.6545278E+00  1.1726309E+03
 1.6575711E+00  1.1940162E+03
 1.6606145E+00  1.2158688E+03
 1.6636579E+00  1.2750001E+03
 1.6667013E+00  1.2792231E+03
 1.6697446E+00  1.3022740E+03
 1.6727880E+00  1.2960442E+03
 1.6758314E+00  1.2630139E+03
 1.6788749E+00  1.2086337E+03
 1.6819181E+00  1.2176727E+03
 1.6849616E+00  1.2785908E+03
 1.6880050E+00  1.2538467E+03
 1.6910484E+00  1.2344327E+03
 1.6940917E+00  1.1944871E+03
 1.6971351E+00  1.1928988E+03
 1.7001785E+00  1.2299194E+03
 1.7032219E+00  1.2219977E+03
 1.7062652E+00  1.2205027E+03
 1.7093086E+00  1.2523990E+03
 1.7123520E+00  1.2274215E+03
 1.7153955E+00  1.2292048E+03
 1.7184387E+00  1.2603923E+03
 1.7214822E+00  1.2508457E+03
 1.7245256E+00  1.3168665E+03
 1.7275690E+00  1.2551127E+03
 1.7306123E+00  1.1473677E+03
 1.7336557E+00  1.1628912E+03
 1.7366991E+00  1.2175339E+03
 1.7397425E+00  1.2685408E+03
 1.7427858E+00  1.2361340E+03
 1.7458292E+00  1.2210651E+03
 1.7488726E+00  1.2365475E+03
 1.7519161E+00  1.2662723E+03
 1.7549593E+00  1.2690901E+03
 1.7580028E+00  1.2285692E+03
 1.7610462E+00  1.2590684E+03
 1.7640896E+00  1.2731483E+03
 1.7671329E+00  1.2339376E+03
 1.7701763E+00  1.2479291E+03
 1.7732197E+00  1.2748220E+03
 1.7762631E+00  1.2690815E+03
 1.7793064E+00  1.2481877E+03
 1.7823498E+00  1.2328567E+03
 1.7853932E+00  1.2534303E+03
 1.7884367E+00  1.2784934E+03
 1.7914799E+00  1.2811293E+03
 1.7945234E+00  1.2635284E+03
 1.7975668E+00  1.2506117E+03
 1.8006102E+00  1.2555543E+03
 1.8036535E+00  1.2344545E+03
 1.8066969E+00  1.1978636E+03
 1.8097403E+00  1.1698156E+03
 1.8127837E+00  1.1911328E+03
 1.8158270E+00  1.2492390E+03
 1.8188704E+00  1.2323190E+03
 1.8219138E+00  1.2048931E+03
 1.8249573E+00  1.2455889E+03
 1.8280005E+00  1.2597406E+03
 1.8310440E+00  1.2518915E+03
 1.8340874E+00  1.2960203E+03
 1.8371308E+00  1.3221552E+03
 1.8401741E+00  1.2843098E+03
 1.8432175E+00  1.2762792E+03
 1.8462609E+00  1.3126389E+03
 1.8493043E+00  1.3044755E+03
 1.8523476E+00  1.2991016E+03
 1.8553910E+00  1.2875449E+03
 1.8584344E+00  1.2590265E+03
 1.8614779E+00  1.2806243E+03
 1.8645211E+00  1.2846556E+03
 1.8675646E+00  1.2758722E+03
 1.8706080E+00  1.3144268E+03
 1.8736514E+00  1.2816703E+03
 1.8766947E+00  1.2255300E+03
 1.8797381E+00  1.2491827E+03
 1.8827815E+00  1.2877422E+03
 1.8858249E+00  1.2592164E+03
 1.8888682E+00  1.2408187E+03
 1.8919116E+00  1.2960154E+03
 1.8949550E+00  1.2943539E+03
 1.8979985E+00  1.2775852E+03
 1.9010417E+00  1.2684749E+03
 1.9040852E+00  1.2782889E+03
 1.9071286E+00  1.2932161E+03
 1.9101719E+00  1.2723374E+03
 1.9132153E+00  1.2640460E+03
 1.9162587E+00  1.2699248E+03
 1.9193021E+00  1.2331016E+03
 1.9223454E+00  1.2539103E+03
 1.9253888E+00  1.3212726E+03
 1.9284322E+00  1.2988385E+03
 1.9314756E+00  1.2620575E+03
 1.9345189E+00  1.2756472E+03
 1.9375623E+00  1.2668649E+03
 1.9406058E+00  1.2461826E+03
 1.9436492E+00  1.2600043E+03
 1.9466925E+00  1.2732893E+03
 1.9497359E+00  1.2857129E+03
 1.9527793E+00  1.2563131E+03
 1.9558227E+00  1.2600764E+03
 1.9588660E+00  1.3143542E+03
 1.9619094E+00  1.3440907E+03
 1.9649528E+00  1.3484972E+03
 1.9679962E+00  1.3709067E+03
 1.9710395E+00  1.3589023E+03
 1.9740829E+00  1.3660309E+03
 1.9771264E+00  1.3575874E+03
 1.9801698E+00  1.3680282E+03
 1.9832131E+00  1.3187665E+03
 1.9862565E+00  1.2665319E+03
 1.9892999E+00  1.2223237E+03
 1.9923433E+00  1.2601425E+03
 1.9953866E+00  1.3289519E+03
 1.9984300E+00  1.3377509E+03
 2.0014734E+00  1.3773633E+03
 2.0045168E+00  1.4063645E+03
 2.0075603E+00  1.3487467E+03
 2.0106037E+00  1.2767687E+03
 2.0136468E+00  1.2645922E+03
 2.0166903E+00  1.2917012E+03
 2.0197337E+00  1.2836624E+03
 2.0227771E+00  1.3172109E+03
 2.0258205E+00  1.3040701E+03
 2.0288639E+00  1.2893268E+03
 2.0319073E+00  1.3105378E+03
 2.0349507E+00  1.3110292E+03
 2.0379939E+00  1.3371842E+03
 2.0410373E+00  1.3702139E+03
 2.0440807E+00  1.3755109E+03
 2.0471241E+00  1.3288173E+03
 2.0501676E+00  1.3311995E+03
 2.0532110E+00  1.3455195E+03
 2.0562544E+00  1.3169039E+03
 2.0592978E+00  1.2788005E+03
 2.0623410E+00  1.3246100E+03
 2.0653844E+00  1.3642290E+03
 2.0684278E+00  1.3758433E+03
 2.0714712E+00  1.3783958E+03
 2.0745146E+00  1.3545686E+03
 2.0775580E+00  1.3608634E+03
 2.0806015E+00  1.3557349E+03
 2.0836449E+00  1.3319768E+03
 2.0866880E+00  1.3173822E+03
 2.0897315E+00  1.3107621E+03
 2.0927749E+00  1.3074485E+03
 2.0958183E+00  1.3661271E+03
 2.0988617E+00  1.3995392E+03
 2.1019051E+00  1.3922749E+03
 2.1049485E+00  1.3778113E+03
 2.1079919E+00  1.3842865E+03
 2.1110351E+00  1.3754133E+03
 2.1140785E+00  1.3996818E+03
 2.1171219E+00  1.4545093E+03
 2.1201653E+00  1.4634969E+03
 2.1232088E+00  1.4559077E+03
 2.1262522E+00  1.5210206E+03
 2.1292956E+00  1.5624882E+03
 2.1323390E+00  1.6051432E+03
 2.1353822E+00  1.6506838E+03
 2.1384256E+00  1.7275944E+03
 2.1414690E+00  1.7947159E+03
 2.1445124E+00  1.8767708E+03
 2.1475558E+00  2.0162697E+03
 2.1505992E+00  2.0966130E+03
 2.1536427E+00  2.1129951E+03
 2.1566861E+00  2.1691514E+03
 2.1597292E+00  2.2048228E+03
 2.1627727E+00  2.2288003E+03
 2.1658161E+00  2.2324502E+03
 2.1688595E+00  2.2333064E+03
 2.1719029E+00  2.2041152E+03
 2.1749463E+00  2.1401318E+03
 2.1779897E+00  2.0894907E+03
 2.1810331E+00  2.0556064E+03
 2.1840763E+00  2.0022516E+03
 2.1871197E+00  1.9004180E+03
 2.1901631E+00  1.7443490E+03
 2.1932065E+00  1.6049857E+03
 2.1962500E+00  1.5842438E+03
 2.1992934E+00  1.5520559E+03
 2.2023368E+00  1.5190336E+03
 2.2053802E+00  1.4843147E+03
 2.2084234E+00  1.4441398E+03
 2.2114668E+00  1.4811123E+03
 2.2145102E+00  1.4595325E+03
 2.2175536E+00  1.3968320E+03
 2.2205970E+00  1.3769656E+03
 2.2236404E+00  1.3414131E+03
 2.2266839E+00  1.3378088E+03
 2.2297273E+00  1.3963840E+03
 2.2327704E+00  1.4125459E+03
 2.2358139E+00  1.3878182E+03
 2.2388573E+00  1.3932278E+03
 2.2419007E+00  1.4506183E+03
 2.2449441E+00  1.4485123E+03
 2.2479875E+00  1.3639475E+03
 2.2510309E+00  1.3073938E+03
 2.2540743E+00  1.2962859E+03
 2.2571175E+00  1.3122163E+03
 2.2601609E+00  1.3683003E+03
 2.2632043E+00  1.4282396E+03
 2.2662477E+00  1.4274050E+03
 2.2692912E+00  1.4271230E+03
 2.2723346E+00  1.4083666E+03
 2.2753780E+00  1.3748662E+03
 2.2784214E+00  1.3944120E+03
 2.2814646E+00  1.4352466E+03
 2.2845080E+00  1.4341404E+03
 2.2875514E+00  1.3946550E+03
 2.2905948E+00  1.4013658E+03
 2.2936382E+00  1.3889895E+03
 2.2966816E+00  1.4038470E+03
 2.2997251E+00  1.4455828E+03
 2.3027685E+00  1.4245951E+03
 2.3058116E+00  1.4071064E+03
 2.3088551E+00  1.3724253E+03
 2.3118985E+00  1.4046736E+03
 2.3149419E+00  1.4472036E+03
 2.3179853E+00  1.4487260E+03
 2.3210287E+00  1.4799825E+03
 2.3240721E+00  1.4471293E+03
 2.3271155E+00  1.4216412E+03
 2.3301587E+00  1.4408452E+03
 2.3332021E+00  1.3958254E+03
 2.3362455E+00  1.3861525E+03
 2.3392889E+00  1.4299950E+03
 2.3423324E+00  1.4101373E+03
 2.3453758E+00  1.3976686E+03
 2.3484192E+00  1.4457440E+03
 2.3514626E+00  1.4430732E+03
 2.3545058E+00  1.3915928E+03
 2.3575492E+00  1.4340970E+03
 2.3605926E+00  1.4977113E+03
 2.3636360E+00  1.5175408E+03
 2.3666794E+00  1.5010671E+03
 2.3697228E+00  1.4994751E+03
 2.3727663E+00  1.4924495E+03
 2.3758097E+00  1.5088521E+03
 2.3788528E+00  1.4908148E+03
 2.3818963E+00  1.4743485E+03
 2.3849397E+00  1.5048627E+03
 2.3879831E+00  1.5090450E+03
 2.3910265E+00  1.5063711E+03
 2.3940699E+00  1.4912987E+03
 2.3971133E+00  1.4831219E+03
 2.4001567E+00  1.5337386E+03
 2.4031999E+00  1.5466443E+03
 2.4062433E+00  1.4950195E+03
 2.4092867E+00  1.4660607E+03
 2.4123302E+00  1.4928492E+03
 2.4153736E+00  1.5221620E+03
 2.4184170E+00  1.5147471E+03
 2.4214604E+00  1.5176406E+03
 2.4245038E+00  1.5504823E+03
 2.4275470E+00  1.5750619E+03
 2.4305904E+00  1.5391212E+03
 2.4336338E+00  1.5236368E+03
 2.4366772E+00  1.5487056E+03
 2.4397206E+00  1.5470393E+03
 2.4427640E+00  1.5437098E+03
 2.4458075E+00  1.5532202E+03
 2.4488509E+00  1.5915339E+03
 2.4518940E+00  1.6152247E+03
 2.4549375E+00  1.5806890E+03
 2.4579809E+00  1.6021367E+03
 2.4610243E+00  1.6172054E+03
 2.4640677E+00  1.5874564E+03
 2.4671111E+00  1.5652860E+03
 2.4701545E+00  1.6132672E+03
 2.4731979E+00  1.6178834E+03
 2.4762411E+00  1.5894567E+03
 2.4792845E+00  1.6118325E+03
 2.4823279E+00  1.6450142E+03
 2.4853714E+00  1.6834221E+03
 2.4884148E+00  1.6762712E+03
 2.4914582E+00  1.6517748E+03
 2.4945016E+00  1.6405042E+03
 2.4975450E+00  1.6321843E+03
 2.5005882E+00  1.6566202E+03
 2.5036316E+00  1.6705576E+03
 2.5066750E+00  1.6780200E+03
 2.5097184E+00  1.7283920E+03
 2.5127618E+00  1.7936094E+03
 2.5158052E+00  1.7696444E+03
 2.5188487E+00  1.7584908E+03
 2.5218921E+00  1.7656466E+03
 2.5249352E+00  1.7881709E+03
 2.5279787E+00  1.8176740E+03
 2.5310221E+00  1.8046727E+03
 2.5340655E+00  1.7983003E+03
 2.5371089E+00  1.9006090E+03
 2.5401523E+00  1.9557271E+03
 2.5431957E+00  1.9491489E+03
 2.5462391E+00  2.0150090E+03
 2.5492823E+00  2.0515608E+03
 2.5523257E+00  2.0316437E+03
 2.5553691E+00  2.0048234E+03
 2.5584126E+00  1.9938031E+03
 2.5614560E+00  2.0806938E+03
 2.5644994E+00  2.1399719E+03
 2.5675428E+00  2.1547100E+03
 2.5705862E+00  2.1774153E+03
 2.5736294E+00  2.2286606E+03
 2.5766728E+00  2.3089045E+03
 2.5797162E+00  2.3516016E+03
 2.5827596E+00  2.3839985E+03
 2.5858030E+00  2.4044495E+03
 2.5888464E+00  2.4536387E+03
 2.5918899E+00  2.5505303E+03
 2.5949333E+00  2.6409473E+03
 2.5979764E+00  2.7848105E+03
 2.6010199E+00  2.8893540E+03
 2.6040633E+00  2.9825889E+03
 2.6071067E+00  3.1356160E+03
 2.6101501E+00  3.3240149E+03
 2.6131935E+00  3.6070254E+03
 2.6162369E+00  3.9228103E+03
 2.6192803E+00  4.3638022E+03
 2.6223235E+00  4.9254678E+03
 2.6253669E+00  5.6659443E+03
 2.6284103E+00  6.9186538E+03
 2.6314538E+00  8.5439229E+03
 2.6344972E+00  1.1176861E+04
 2.6375406E+00  1.5163825E+04
 2.6405840E+00  2.0310936E+04
 2.6436274E+00  2.7939777E+04
 2.6466706E+00  3.4638582E+04
 2.6497140E+00  4.0748309E+04
 2.6527574E+00  4.2476051E+04
 2.6558008E+00  4.0469789E+04
 2.6588442E+00  3.4364488E+04
 2.6618876E+00  2.7999158E+04
 2.6649311E+00  2.1106877E+04
 2.6679742E+00  1.6379187E+04
 2.6710176E+00  1.2758579E+04
 2.6740611E+00  1.0475874E+04
 2.6771045E+00  9.2102627E+03
 2.6801479E+00  8.3441904E+03
 2.6831913E+00  8.0557046E+03
 2.6862347E+00  7.9237617E+03
 2.6892781E+00  8.1065215E+03
 2.6923213E+00  8.3836807E+03
 2.6953647E+00  8.9171543E+03
 2.6984081E+00  9.7867363E+03
 2.7014515E+00  1.0744777E+04
 2.7044950E+00  1.2465147E+04
 2.7075384E+00  1.4758916E+04
 2.7105818E+00  1.8766689E+04
 2.7136252E+00  2.5862336E+04
 2.7166684E+00  3.7184992E+04
 2.7197118E+00  6.3609848E+04
 2.7227552E+00  1.0338574E+05
 2.7257986E+00  1.7079817E+05
 2.7288420E+00  2.3839470E+05
 2.7318854E+00  2.8181856E+05
 2.7349288E+00  2.6730859E+05
 2.7379723E+00  2.1400663E+05
 2.7410154E+00  1.3515520E+05
 2.7440588E+00  8.4738563E+04
 2.7471023E+00  4.9455703E+04
 2.7501457E+00  3.1350486E+04
 2.7531891E+00  2.2105977E+04
 2.7562325E+00  1.6220339E+04
 2.7592759E+00  1.3292894E+04
 2.7623193E+00  1.1030951E+04
 2.7653625E+00  9.5015410E+03
 2.7684059E+00  8.4641543E+03
 2.7714493E+00  7.5195234E+03
 2.7744927E+00  6.8465986E+03
 2.7775362E+00  6.2147886E+03
 2.7805796E+00  5.7607510E+03
 2.7836230E+00  5.4064600E+03
 2.7866664E+00  5.0037876E+03
 2.7897096E+00  4.7021494E+03
 2.7927530E+00  4.4185151E+03
 2.7957964E+00  4.1839121E+03
 2.7988398E+00  3.9694348E+03
 2.8018832E+00  3.7356660E+03
 2.8049266E+00  3.5932175E+03
 2.8079700E+00  3.4469126E+03
 2.8110135E+00  3.2637725E+03
 2.8140566E+00  3.1144397E+03
 2.8171000E+00  2.9707588E+03
 2.8201435E+00  2.9027932E+03
 2.8231869E+00  2.8742163E+03
 2.8262303E+00  2.8257456E+03
 2.8292737E+00  2.7607507E+03
 2.8323171E+00  2.6783784E+03
 2.8353605E+00  2.6015508E+03
 2.8384037E+00  2.5522646E+03
 2.8414471E+00  2.5158379E+03
 2.8444905E+00  2.4679819E+03
 2.8475339E+00  2.3836780E+03
 2.8505774E+00  2.3488801E+03
 2.8536208E+00  2.3052512E+03
 2.8566642E+00  2.2710159E+03
 2.8597076E+00  2.2309275E+03
 2.8627508E+00  2.1826970E+03
 2.8657942E+00  2.1604241E+03
 2.8688376E+00  2.1510029E+03
 2.8718810E+00  2.0914207E+03
 2.8749244E+00  2.0574724E+03
 2.8779678E+00  2.0682241E+03
 2.8810112E+00  2.0428575E+03
 2.8840547E+00  2.0384216E+03
 2.8870978E+00  2.0217721E+03
 2.8901412E+00  1.9800841E+03
 2.8931847E+00  1.9378599E+03
 2.8962281E+00  1.9053866E+03
 2.8992715E+00  1.9109813E+03
 2.9023149E+00  1.9835243E+03
 2.9053583E+00  1.9616600E+03
 2.9084017E+00  1.8829998E+03
 2.9114449E+00  1.8783136E+03
 2.9144883E+00  1.8578513E+03
 2.9175317E+00  1.8178424E+03
 2.9205751E+00  1.8116655E+03
 2.9236186E+00  1.8648920E+03
 2.9266620E+00  1.8461205E+03
 2.9297054E+00  1.8205529E+03
 2.9327488E+00  1.8424823E+03
 2.9357920E+00  1.8097532E+03
 2.9388354E+00  1.7909435E+03
 2.9418788E+00  1.8218422E+03
 2.9449222E+00  1.8028188E+03
 2.9479656E+00  1.7322701E+03
 2.9510090E+00  1.7511973E+03
 2.9540524E+00  1.8021884E+03
 2.9570959E+00  1.7693420E+03
 2.9601390E+00  1.7659681E+03
 2.9631824E+00  1.7745688E+03
 2.9662259E+00  1.7723754E+03
 2.9692693E+00  1.8037721E+03
 2.9723127E+00  1.8041926E+03
 2.9753561E+00  1.7788339E+03
 2.9783995E+00  1.7268397E+03
 2.9814429E+00  1.7188134E+03
 2.9844861E+00  1.7387128E+03
 2.9875295E+00  1.7533606E+03
 2.9905729E+00  1.7497599E+03
 2.9936163E+00  1.7535333E+03
 2.9966598E+00  1.7731896E+03
 2.9997032E+00  1.7473970E+03
 3.0027466E+00  1.7488489E+03
 3.0057900E+00  1.7428091E+03
 3.0088332E+00  1.7493201E+03
 3.0118766E+00  1.7650157E+03
 3.0149200E+00  1.7674921E+03
 3.0179634E+00  1.7677881E+03
 3.0210068E+00  1.7693934E+03
 3.0240502E+00  1.7633480E+03
 3.0270936E+00  1.7740717E+03
 3.0301371E+00  1.7913983E+03
 3.0331802E+00  1.8021896E+03
 3.0362236E+00  1.8226968E+03
 3.0392671E+00  1.8158666E+03
 3.0423105E+00  1.8111602E+03
 3.0453539E+00  1.8766031E+03
 3.0483973E+00  1.8995051E+03
 3.0514407E+00  1.8831097E+03
 3.0544841E+00  1.8636125E+03
 3.0575273E+00  1.8734900E+03
 3.0605707E+00  1.8710707E+03
 3.0636141E+00  1.8596309E+03
 3.0666575E+00  1.8737690E+03
 3.0697010E+00  1.9231770E+03
 3.0727444E+00  1.9604429E+03
 3.0757878E+00  2.0048418E+03
 3.0788312E+00  2.0345525E+03
 3.0818744E+00  2.0780493E+03
 3.0849178E+00  2.1538650E+03
 3.0879612E+00  2.1668311E+03
 3.0910046E+00  2.1168884E+03
 3.0940480E+00  2.0860183E+03
 3.0970914E+00  2.0556394E+03
 3.1001348E+00  1.9774888E+03
 3.1031783E+00  1.9119917E+03
 3.1062214E+00  1.8827269E+03
 3.1092649E+00  1.8253733E+03
 3.1123083E+00  1.7754678E+03
 3.1153517E+00  1.7727048E+03
 3.1183951E+00  1.7580693E+03
 3.1214385E+00  1.7363267E+03
 3.1244819E+00  1.7452001E+03
 3.1275253E+00  1.7536118E+03
 3.1305685E+00  1.7568373E+03
 3.1336119E+00  1.7710969E+03
 3.1366553E+00  1.8375540E+03
 3.1396987E+00  1.8665189E+03
 3.1427422E+00  1.9266252E+03
 3.1457856E+00  2.0048378E+03
 3.1488290E+00  2.0648997E+03
 3.1518724E+00  2.1153491E+03
 3.1549156E+00  2.1579995E+03
 3.1579590E+00  2.1800845E+03
 3.1610024E+00  2.0987480E+03
 3.1640458E+00  2.0101890E+03
 3.1670892E+00  1.9029176E+03
 3.1701326E+00  1.8371028E+03
 3.1731761E+00  1.8164222E+03
 3.1762195E+00  1.8319546E+03
 3.1792626E+00  1.7977178E+03
 3.1823061E+00  1.7295039E+03
 3.1853495E+00  1.7033571E+03
 3.1883929E+00  1.7462866E+03
 3.1914363E+00  1.7389044E+03
 3.1944797E+00  1.6892670E+03
 3.1975231E+00  1.6725266E+03
 3.2005665E+00  1.6710444E+03
 3.2036097E+00  1.7039113E+03
 3.2066531E+00  1.7158644E+03
 3.2096965E+00  1.7045154E+03
 3.2127399E+00  1.6633546E+03
 3.2157834E+00  1.6826459E+03
 3.2188268E+00  1.7297444E+03
 3.2218702E+00  1.7283224E+03
 3.2249136E+00  1.7219957E+03
 3.2279568E+00  1.7285812E+03
 3.2310002E+00  1.7170183E+03
 3.2340436E+00  1.6900343E+03
 3.2370870E+00  1.6980615E+03
 3.2401304E+00  1.7312028E+03
 3.2431738E+00  1.7729236E+03
 3.2462173E+00  1.7461779E+03
 3.2492607E+00  1.7100509E+03
 3.2523038E+00  1.6971097E+03
 3.2553473E+00  1.7068132E+03
 3.2583907E+00  1.6995542E+03
 3.2614341E+00  1.6913997E+03
 3.2644775E+00  1.7005459E+03
 3.2675209E+00  1.7088412E+03
 3.2705643E+00  1.7475415E+03
 3.2736077E+00  1.7260552E+03
 3.2766509E+00  1.6969290E+03
 3.2796943E+00  1.7309817E+03
 3.2827377E+00  1.7403394E+03
 3.2857811E+00  1.7360530E+03
 3.2888246E+00  1.7600621E+03
 3.2918680E+00  1.7251521E+03
 3.2949114E+00  1.6622350E+03
 3.2979548E+00  1.6836483E+03
 3.3009980E+00  1.7377490E+03
 3.3040414E+00  1.7473427E+03
 3.3070848E+00  1.7308796E+03
 3.3101282E+00  1.7022537E+03
 3.3131716E+00  1.6965563E+03
 3.3162150E+00  1.6887498E+03
 3.3192585E+00  1.6928998E+03
 3.3223019E+00  1.7326040E+03
 3.3253450E+00  1.7822968E+03
 3.3283885E+00  1.7665844E+03
 3.3314319E+00  1.7177509E+03
 3.3344753E+00  1.6689352E+03
 3.3375187E+00  1.6745518E+03
 3.3405621E+00  1.7507903E+03
 3.3436055E+00  1.7442916E+03
 3.3466489E+00  1.7088467E+03
 3.3496921E+00  1.7057266E+03
 3.3527355E+00  1.7164331E+03
 3.3557789E+00  1.7402777E+03
 3.3588223E+00  1.7403010E+03
 3.3618658E+00  1.7626837E+03
 3.3649092E+00  1.7765306E+03
 3.3679526E+00  1.7331711E+03
 3.3709960E+00  1.7345801E+03
 3.3740392E+00  1.7656056E+03
 3.3770826E+00  1.7915970E+03
 3.3801260E+00  1.7782577E+03
 3.3831694E+00  1.7791965E+03
 3.3862128E+00  1.8160167E+03
 3.3892562E+00  1.8133594E+03
 3.3922997E+00  1.8141343E+03
 3.3953428E+00  1.8074496E+03
 3.3983862E+00  1.7795468E+03
 3.4014297E+00  1.7894900E+03
 3.4044731E+00  1.8140846E+03
 3.4075165E+00  1.7971620E+03
 3.4105599E+00  1.8129348E+03
 3.4136033E+00  1.8209386E+03
 3.4166467E+00  1.7960582E+03
 3.4196899E+00  1.8343430E+03
 3.4227333E+00  1.8593125E+03
 3.4257767E+00  1.8324456E+03
 3.4288201E+00  1.8271512E+03
 3.4318635E+00  1.8752051E+03
 3.4349070E+00  1.8900956E+03
 3.4379504E+00  1.8872410E+03
 3.4409938E+00  1.8676030E+03
 3.4440370E+00  1.8686783E+03
 3.4470804E+00  1.8870787E+03
 3.4501238E+00  1.8771041E+03
 3.4531672E+00  1.8751133E+03
 3.4562106E+00  1.8597504E+03
 3.4592540E+00  1.8511227E+03
 3.4622974E+00  1.8433920E+03
 3.4653409E+00  1.8151632E+03
 3.4683840E+00  1.8022644E+03
 3.4714274E+00  1.7929276E+03
 3.4744709E+00  1.7720333E+03
 3.4775143E+00  1.8011609E+03
 3.4805577E+00  1.8207753E+03
 3.4836011E+00  1.8367332E+03
 3.4866445E+00  1.8438849E+03
 3.4896879E+00  1.8365094E+03
 3.4927311E+00  1.8530847E+03
 3.4957745E+00  1.8442953E+03
 3.4988179E+00  1.8397737E+03
 3.5018613E+00  1.8440255E+03
 3.5049047E+00  1.8126942E+03
 3.5079482E+00  1.8254010E+03
 3.5109916E+00  1.8292719E+03
 3.5140350E+00  1.8121204E+03
 3.5170782E+00  1.7942004E+03
 3.5201216E+00  1.8099685E+03
 3.5231650E+00  1.8148396E+03
 3.5262084E+00  1.8077915E+03
 3.5292518E+00  1.8193789E+03
 3.5322952E+00  1.8135336E+03
 3.5353386E+00  1.8258724E+03
 3.5383821E+00  1.8386174E+03
 3.5414252E+00  1.8359530E+03
 3.5444686E+00  1.8136349E+03
 3.5475121E+00  1.8125967E+03
 3.5505555E+00  1.8063545E+03
 3.5535989E+00  1.7982786E+03
 3.5566423E+00  1.8103553E+03
 3.5596857E+00  1.8102565E+03
 3.5627291E+00  1.8099711E+03
 3.5657723E+00  1.8168378E+03
 3.5688157E+00  1.8671956E+03
 3.5718591E+00  1.8786769E+03
 3.5749025E+00  1.8489274E+03
 3.5779459E+00  1.8375072E+03
 3.5809894E+00  1.8332178E+03
 3.5840328E+00  1.8561006E+03
 3.5870762E+00  1.8559156E+03
 3.5901194E+00  1.8460510E+03
 3.5931628E+00  1.8818473E+03
 3.5962062E+00  1.9162549E+03
 3.5992496E+00  1.9157740E+03
 3.6022930E+00  1.8936807E+03
 3.6053364E+00  1.8911820E+03
 3.6083798E+00  1.8742014E+03
 3.6114233E+00  1.8746594E+03
 3.6144664E+00  1.9398547E+03
 3.6175098E+00  1.9189496E+03
 3.6205533E+00  1.8711891E+03
 3.6235967E+00  1.8689657E+03
 3.6266401E+00  1.9155151E+03
 3.6296835E+00  1.9377439E+03
 3.6327269E+00  1.9353352E+03
 3.6357703E+00  1.9570244E+03
 3.6388135E+00  1.9824462E+03
 3.6418569E+00  1.9992606E+03
 3.6449003E+00  2.0032222E+03
 3.6479437E+00  1.9818057E+03
 3.6509871E+00  1.9535581E+03
 3.6540306E+00  1.9684384E+03
 3.6570740E+00  2.0082253E+03
 3.6601174E+00  2.0142125E+03
 3.6631606E+00  2.0195029E+03
 3.6662040E+00  2.0752444E+03
 3.6692474E+00  2.1241865E+03
 3.6722908E+00  2.1393911E+03
 3.6753342E+00  2.1705359E+03
 3.6783776E+00  2.1628679E+03
 3.6814210E+00  2.1991768E+03
 3.6844645E+00  2.2645005E+03
 3.6875076E+00  2.3092786E+03
 3.6905510E+00  2.3918140E+03
 3.6935945E+00  2.4635156E+03
 3.6966379E+00  2.5610911E+03
 3.6996813E+00  2.7085076E+03
 3.7027247E+00  2.8093989E+03
 3.7057681E+00  2.8833657E+03
 3.7088115E+00  2.9825693E+03
 3.7118547E+00  3.1151296E+03
 3.7148981E+00  3.1892292E+03
 3.7179415E+00  3.2234197E+03
 3.7209849E+00  3.2488669E+03
 3.7240283E+00  3.2889370E+03
 3.7270718E+00  3.3621235E+03
 3.7301152E+00  3.4424526E+03
 3.7331586E+00  3.5412085E+03
 3.7362018E+00  3.6180020E+03
 3.7392452E+00  3.7477185E+03
 3.7422886E+00  3.9912676E+03
 3.7453320E+00  4.3235752E+03
 3.7483754E+00  4.7171533E+03
 3.7514188E+00  5.2847930E+03
 3.7544622E+00  5.8613438E+03
 3.7575057E+00  6.4266592E+03
 3.7605488E+00  6.8674512E+03
 3.7635922E+00  7.0897490E+03
 3.7666357E+00  7.0384429E+03
 3.7696791E+00  6.7483594E+03
 3.7727225E+00  6.2602886E+03
 3.7757659E+00  5.5828340E+03
 3.7788093E+00  4.9657354E+03
 3.7818527E+00  4.3323877E+03
 3.7848959E+00  3.8667520E+03
 3.7879393E+00  3.4888003E+03
 3.7909827E+00  3.1558147E+03
 3.7940261E+00  2.9273274E+03
 3.7970695E+00  2.7517166E+03
 3.8001130E+00  2.6152205E+03
 3.8031564E+00  2.4744185E+03
 3.8061998E+00  2.4412927E+03
 3.8092430E+00  2.4128601E+03
 3.8122864E+00  2.3564690E+03
 3.8153298E+00  2.3309351E+03
 3.8183732E+00  2.3143989E+03
 3.8214166E+00  2.2477310E+03
 3.8244600E+00  2.2082390E+03
 3.8275034E+00  2.2537209E+03
 3.8305469E+00  2.2960674E+03
 3.8335900E+00  2.2630225E+03
 3.8366334E+00  2.1694548E+03
 3.8396769E+00  2.1601423E+03
 3.8427203E+00  2.1797563E+03
 3.8457637E+00  2.1410503E+03
 3.8488071E+00  2.1445505E+03
 3.8518505E+00  2.1329395E+03
 3.8548939E+00  2.1281846E+03
 3.8579371E+00  2.1554360E+03
 3.8609805E+00  2.1425835E+03
 3.8640239E+00  2.1251482E+03
 3.8670673E+00  2.1002212E+03
 3.8701108E+00  2.1074585E+03
 3.8731542E+00  2.1124736E+03
 3.8761976E+00  2.1183123E+03
 3.8792410E+00  2.1295046E+03
 3.8822842E+00  2.1079646E+03
 3.8853276E+00  2.0906228E+03
 3.8883710E+00  2.1035220E+03
 3.8914144E+00  2.1371958E+03
 3.8944578E+00  2.1172317E+03
 3.8975012E+00  2.1217207E+03
 3.9005446E+00  2.1313835E+03
 3.9035881E+00  2.1119045E+03
 3.9066312E+00  2.1058411E+03
 3.9096746E+00  2.1135762E+03
 3.9127181E+00  2.1225752E+03
 3.9157615E+00  2.1229080E+03
 3.9188049E+00  2.0981863E+03
 3.9218483E+00  2.0961982E+03
 3.9248917E+00  2.1366653E+03
 3.9279351E+00  2.1552961E+03
 3.9309783E+00  2.1583083E+03
 3.9340217E+00  2.1648486E+03
 3.9370651E+00  2.1641951E+03
 3.9401085E+00  2.1949854E+03
 3.9431520E+00  2.1719053E+03
 3.9461954E+00  2.1648054E+03
 3.9492388E+00  2.1739688E+03
 3.9522822E+00  2.1820159E+03
 3.9553254E+00  2.2043386E+03
 3.9583688E+00  2.1710354E+03
 3.9614122E+00  2.1775183E+03
 3.9644556E+00  2.2078542E+03
 3.9674990E+00  2.2177795E+03
 3.9705424E+00  2.2368123E+03
 3.9735858E+00  2.2613997E+03
 3.9766293E+00  2.2515830E+03
 3.9796724E+00  2.2233623E+03
 3.9827158E+00  2.2268325E+03
 3.9857593E+00  2.2380291E+03
 3.9888027E+00  2.2787126E+03
 3.9918461E+00  2.3164905E+03
 3.9948895E+00  2.3113337E+03
 3.9979329E+00  2.2875105E+03
 4.0009761E+00  2.2765676E+03
 4.0040197E+00  2.2626113E+03
 4.0070629E+00  2.2632964E+03
 4.0101066E+00  2.2835002E+03
 4.0131497E+00  2.2903210E+03
 4.0161929E+00  2.3138442E+03
 4.0192366E+00  2.3513630E+03
 4.0222797E+00  2.3368823E+03
 4.0253234E+00  2.3526292E+03
 4.0283666E+00  2.3562166E+03
 4.0314102E+00  2.3569255E+03
 4.0344534E+00  2.3741040E+03
 4.0374970E+00  2.3770750E+03
 4.0405402E+00  2.3872842E+03
 4.0435834E+00  2.4020093E+03
 4.0466270E+00  2.4240095E+03
 4.0496702E+00  2.4649170E+03
 4.0527139E+00  2.4650027E+03
 4.0557570E+00  2.4597271E+03
 4.0588007E+00  2.5003970E+03
 4.0618439E+00  2.4875076E+03
 4.0648870E+00  2.4531292E+03
 4.0679307E+00  2.4764595E+03
 4.0709739E+00  2.5089648E+03
 4.0740175E+00  2.5562849E+03
 4.0770607E+00  2.5562148E+03
 4.0801044E+00  2.5308328E+03
 4.0831475E+00  2.5156572E+03
 4.0861912E+00  2.4908879E+03
 4.0892344E+00  2.5305684E+03
 4.0922775E+00  2.5520759E+03
 4.0953212E+00  2.5559949E+03
 4.0983644E+00  2.5749900E+03
 4.1014080E+00  2.6154236E+03
 4.1044512E+00  2.6494448E+03
 4.1074948E+00  2.6897617E+03
 4.1105380E+00  2.6987249E+03
 4.1135812E+00  2.6919900E+03
 4.1166248E+00  2.6693618E+03
 4.1196680E+00  2.6389192E+03
 4.1227117E+00  2.6781504E+03
 4.1257548E+00  2.7011516E+03
 4.1287985E+00  2.7110361E+03
 4.1318417E+00  2.7147939E+03
 4.1348853E+00  2.7357847E+03
 4.1379285E+00  2.7775034E+03
 4.1409717E+00  2.7961252E+03
 4.1440153E+00  2.8072625E+03
 4.1470585E+00  2.8021438E+03
 4.1501021E+00  2.8107871E+03
 4.1531453E+00  2.8401892E+03
 4.1561890E+00  2.8500566E+03
 4.1592321E+00  2.8603513E+03
 4.1622753E+00  2.9050000E+03
 4.1653190E+00  2.9334150E+03
 4.1683621E+00  2.9363660E+03
 4.1714058E+00  2.9676055E+03
 4.1744490E+00  2.9855342E+03
 4.1774926E+00  3.0263264E+03
 4.1805358E+00  3.0605269E+03
 4.1835790E+00  3.0495217E+03
 4.1866226E+00  3.0767498E+03
 4.1896658E+00  3.1266970E+03
 4.1927094E+00  3.1468318E+03
 4.1957526E+00  3.1481824E+03
 4.1987963E+00  3.1545967E+03
 4.2018394E+00  3.1461431E+03
 4.2048831E+00  3.1600574E+03
 4.2079263E+00  3.2317341E+03
 4.2109694E+00  3.2607000E+03
 4.2140131E+00  3.2520850E+03
 4.2170563E+00  3.2480195E+03
 4.2200999E+00  3.2477637E+03
 4.2231431E+00  3.2838628E+03
 4.2261868E+00  3.3059839E+03
 4.2292299E+00  3.3238208E+03
 4.2322731E+00  3.4113296E+03
 4.2353168E+00  3.4160999E+03
 4.2383599E+00  3.3929949E+03
 4.2414036E+00  3.4266536E+03
 4.2444468E+00  3.4467908E+03
 4.2474904E+00  3.4693367E+03
 4.2505336E+00  3.4559585E+03
 4.2535772E+00  3.4571626E+03
 4.2566204E+00  3.5264395E+03
 4.2596636E+00  3.5594636E+03
 4.2627072E+00  3.5816292E+03
 4.2657504E+00  3.6156279E+03
 4.2687941E+00  3.6586257E+03
 4.2718372E+00  3.6768220E+03
 4.2748809E+00  3.6455833E+03
 4.2779241E+00  3.6750625E+03
 4.2809672E+00  3.7146211E+03
 4.2840109E+00  3.7081643E+03
 4.2870541E+00  3.7531448E+03
 4.2900977E+00  3.8007620E+03
 4.2931409E+00  3.8273408E+03
 4.2961845E+00  3.8338730E+03
 4.2992277E+00  3.8539990E+03
 4.3022714E+00  3.9218079E+03
 4.3053145E+00  3.9559021E+03
 4.3083577E+00  4.0003960E+03
 4.3114014E+00  4.0145208E+03
 4.3144445E+00  4.0493274E+03
 4.3174882E+00  4.0935649E+03
 4.3205314E+00  4.0836211E+03
 4.3235750E+00  4.1288218E+03
 4.3266182E+00  4.1147432E+03
 4.3296614E+00  4.0572327E+03
 4.3327050E+00  4.0974575E+03
 4.3357482E+00  4.0793643E+03
 4.3387918E+00  4.1250518E+03
 4.3418350E+00  4.1482930E+03
 4.3448787E+00  4.1562437E+03
 4.3479218E+00  4.2058984E+03
 4.3509655E+00  4.1932480E+03
 4.3540087E+00  4.1939912E+03
 4.3570518E+00  4.1984971E+03
 4.3600955E+00  4.2188677E+03
 4.3631387E+00  4.2768970E+03
 4.3661823E+00  4.2623696E+03
 4.3692255E+00  4.3251851E+03
 4.3722692E+00  4.3390215E+03
 4.3753123E+00  4.2931953E+03
 4.3783555E+00  4.3393018E+03
 4.3813992E+00  4.3274731E+03
 4.3844423E+00  4.3284375E+03
 4.3874860E+00  4.3343809E+03
 4.3905292E+00  4.2891885E+03
 4.3935728E+00  4.2955303E+03
 4.3966160E+00  4.2528140E+03
 4.3996596E+00  4.2996025E+03
 4.4027028E+00  4.2880928E+03
 4.4057460E+00  4.2248828E+03
 4.4087896E+00  4.2559912E+03
 4.4118328E+00  4.2416406E+03
 4.4148765E+00  4.3149722E+03
 4.4179196E+00  4.3444478E+03
 4.4209633E+00  4.3217217E+03
 4.4240065E+00  4.3579087E+03
 4.4270496E+00  4.3238389E+03
 4.4300933E+00  4.3335869E+03
 4.4331365E+00  4.3585283E+03
 4.4361801E+00  4.3763374E+03
 4.4392233E+00  4.4129272E+03
 4.4422669E+00  4.3805659E+03
 4.4453101E+00  4.4296670E+03
 4.4483538E+00  4.4485762E+03
 4.4513969E+00  4.4501558E+03
 4.4544401E+00  4.5047510E+03
 4.4574838E+00  4.4948257E+03
 4.4605269E+00  4.5554277E+03
 4.4635706E+00  4.5853628E+03
 4.4666138E+00  4.5550908E+03
 4.4696574E+00  4.5797480E+03
 4.4727006E+00  4.5242749E+03
 4.4757438E+00  4.4398203E+03
 4.4787874E+00  4.4389102E+03
 4.4818306E+00  4.4113564E+03
 4.4848742E+00  4.4245137E+03
 4.4879174E+00  4.3958188E+03
 4.4909611E+00  4.3700640E+03
 4.4940042E+00  4.3626758E+03
 4.4970479E+00  4.3604976E+03
 4.5000911E+00  4.3772183E+03
 4.5031343E+00  4.3096353E+03
 4.5061779E+00  4.3318784E+03
 4.5092211E+00  4.3828428E+03
 4.5122647E+00  4.3497549E+03
 4.5153079E+00  4.3646328E+03
 4.5183516E+00  4.3837378E+03
 4.5213947E+00  4.4136523E+03
 4.5244379E+00  4.4038052E+03
 4.5274816E+00  4.3305781E+03
 4.5305247E+00  4.3995264E+03
 4.5335684E+00  4.4386953E+03
 4.5366116E+00  4.4512988E+03
 4.5396552E+00  4.4728042E+03
 4.5426984E+00  4.4573521E+03
 4.5457420E+00  4.5215586E+03
 4.5487852E+00  4.5603784E+03
 4.5518284E+00  4.6384385E+03
 4.5548720E+00  4.7568091E+03
 4.5579152E+00  4.8239810E+03
 4.5609589E+00  4.9187661E+03
 4.5640020E+00  4.9769209E+03
 4.5670457E+00  5.0462676E+03
 4.5700889E+00  5.1274053E+03
 4.5731320E+00  5.1627134E+03
 4.5761757E+00  5.2399971E+03
 4.5792189E+00  5.2721040E+03
 4.5822625E+00  5.1970752E+03
 4.5853057E+00  5.1823252E+03
 4.5883493E+00  5.1728096E+03
 4.5913925E+00  5.1629644E+03
 4.5944362E+00  5.1005576E+03
 4.5974793E+00  5.0187153E+03
 4.6005225E+00  4.9710327E+03
 4.6035662E+00  4.8731519E+03
 4.6066093E+00  4.8708364E+03
 4.6096530E+00  4.8516211E+03
 4.6126962E+00  4.8399434E+03
 4.6157398E+00  4.8482065E+03
 4.6187830E+00  4.8059912E+03
 4.6218262E+00  4.7766372E+03
 4.6248698E+00  4.7307515E+03
 4.6279130E+00  4.7286792E+03
 4.6309566E+00  4.7274492E+03
 4.6339998E+00  4.6198721E+03
 4.6370435E+00  4.5743428E+03
 4.6400867E+00  4.5255713E+03
 4.6431303E+00  4.4657759E+03
 4.6461735E+00  4.4290283E+03
 4.6492167E+00  4.3374106E+03
 4.6522603E+00  4.2941665E+03
 4.6553035E+00  4.2258062E+03
 4.6583471E+00  4.1802681E+03
 4.6613903E+00  4.1523599E+03
 4.6644340E+00  4.0755994E+03
 4.6674771E+00  4.1166992E+03
 4.6705203E+00  4.1214248E+03
 4.6735640E+00  4.0656589E+03
 4.6766071E+00  4.0091741E+03
 4.6796508E+00  3.9737832E+03
 4.6826940E+00  4.0319099E+03
 4.6857376E+00  4.0070964E+03
 4.6887808E+00  3.9535393E+03
 4.6918244E+00  3.9630374E+03
 4.6948676E+00  3.9329990E+03
 4.6979108E+00  3.9468667E+03
 4.7009544E+00  3.9195620E+03
 4.7039976E+00  3.9073809E+03
 4.7070413E+00  3.9026558E+03
 4.7100844E+00  3.8291370E+03
 4.7131281E+00  3.8509934E+03
 4.7161713E+00  3.8516599E+03
 4.7192144E+00  3.8185605E+03
 4.7222581E+00  3.8419451E+03
 4.7253013E+00  3.8115662E+03
 4.7283449E+00  3.7944543E+03
 4.7313881E+00  3.7743975E+03
 4.7344317E+00  3.7708987E+03
 4.7374749E+00  3.7584224E+03
 4.7405186E+00  3.6914695E+03
 4.7435617E+00  3.7180833E+03
 4.7466049E+00  3.6972273E+03
 4.7496486E+00  3.6595310E+03
 4.7526917E+00  3.6608596E+03
 4.7557354E+00  3.6173743E+03
 4.7587786E+00  3.6244292E+03
 4.7618222E+00  3.6425779E+03
 4.7648654E+00  3.6776318E+03
 4.7679086E+00  3.6594089E+03
 4.7709522E+00  3.5636575E+03
 4.7739954E+00  3.5519578E+03
 4.7770391E+00  3.5314656E+03
 4.7800822E+00  3.5181882E+03
 4.7831259E+00  3.5399878E+03
 4.7861691E+00  3.5048052E+03
 4.7892127E+00  3.4812720E+03
 4.7922559E+00  3.4608452E+03
 4.7952991E+00  3.4445288E+03
 4.7983427E+00  3.4586064E+03
 4.8013859E+00  3.4655273E+03
 4.8044295E+00  3.4388940E+03
 4.8074727E+00  3.3992788E+03
 4.8105164E+00  3.4170427E+03
 4.8135595E+00  3.4006777E+03
 4.8166027E+00  3.3584614E+03
 4.8196464E+00  3.3696804E+03
 4.8226895E+00  3.3602063E+03
 4.8257332E+00  3.3137104E+03
 4.8287764E+00  3.3147756E+03
 4.8318200E+00  3.3220469E+03
 4.8348632E+00  3.3221975E+03
 4.8379068E+00  3.3074937E+03
 4.8409500E+00  3.2966511E+03
 4.8439932E+00  3.2831311E+03
 4.8470368E+00  3.2738357E+03
 4.8500800E+00  3.2549702E+03
 4.8531237E+00  3.2428528E+03
 4.8561668E+00  3.2410884E+03
 4.8592105E+00  3.2259861E+03
 4.8622537E+00  3.2301660E+03
 4.8652968E+00  3.2258052E+03
 4.8683405E+00  3.2355872E+03
 4.8713837E+00  3.2731082E+03
 4.8744273E+00  3.2623438E+03
 4.8774705E+00  3.2300225E+03
 4.8805141E+00  3.2157290E+03
 4.8835573E+00  3.2194434E+03
 4.8866010E+00  3.2352175E+03
 4.8896441E+00  3.2310247E+03
 4.8926873E+00  3.1737820E+03
 4.8957310E+00  3.1246602E+03
 4.8987741E+00  3.1084949E+03
 4.9018178E+00  3.0996589E+03
 4.9048610E+00  3.1019314E+03
 4.9079046E+00  3.0874502E+03
 4.9109478E+00  3.0557593E+03
 4.9139910E+00  3.0360979E+03
 4.9170346E+00  3.0087571E+03
 4.9200778E+00  2.9946775E+03
 4.9231215E+00  2.9864468E+03
 4.9261646E+00  2.9743853E+03
 4.9292083E+00  2.9493721E+03
 4.9322515E+00  2.9294316E+03
 4.9352946E+00  2.8965635E+03
 4.9383383E+00  2.8733228E+03
 4.9413815E+00  2.8676145E+03
 4.9444251E+00  2.8659072E+03
 4.9474683E+00  2.8754260E+03
 4.9505119E+00  2.8983779E+03
 4.9535551E+00  2.8979961E+03
 4.9565988E+00  2.8607202E+03
 4.9596419E+00  2.8510457E+03
 4.9626851E+00  2.8460442E+03
 4.9657288E+00  2.8150920E+03
 4.9687719E+00  2.7761289E+03
 4.9718156E+00  2.7829426E+03
 4.9748588E+00  2.8167212E+03
 4.9779024E+00  2.8194927E+03
 4.9809456E+00  2.8049858E+03
 4.9839888E+00  2.7768333E+03
 4.9870324E+00  2.7748428E+03
 4.9900756E+00  2.7851694E+03
 4.9931192E+00  2.7952078E+03
 4.9961624E+00  2.7353765E+03
 4.9992061E+00  2.6934771E+03
 5.0022492E+00  2.6988469E+03
 5.0052929E+00  2.7043218E+03
 5.0083361E+00  2.7540854E+03
 5.0113792E+00  2.6996245E+03
 5.0144229E+00  2.6225044E+03
 5.0174661E+00  2.6289019E+03
 5.0205097E+00  2.6236526E+03
 5.0235529E+00  2.6337344E+03
 5.0265965E+00  2.6422393E+03
 5.0296397E+00  2.6353938E+03
 5.0326829E+00  2.6173623E+03
 5.0357265E+00  2.6063030E+03
 5.0387697E+00  2.6024802E+03
 5.0418134E+00  2.6113770E+03
 5.0448565E+00  2.6365510E+03
 5.0479002E+00  2.6318296E+03
 5.0509434E+00  2.6006926E+03
 5.0539870E+00  2.5736326E+03
 5.0570302E+00  2.5778811E+03
 5.0600734E+00  2.6206086E+03
 5.0631170E+00  2.6292444E+03
 5.0661602E+00  2.5909185E+03
 5.0692039E+00  2.6097959E+03
 5.0722470E+00  2.6148047E+03
