C:\Users\geste_000\Documents\MatLab Analysis\PSU\(111) Dense\clamped files\351.t
2-Theta Angle (Degrees)
Intensity
       1500
 5.1021564E-01  9.7342053E+02
 5.1325899E-01  1.1778276E+03
 5.1630241E-01  1.1603403E+03
 5.1934576E-01  1.0557428E+03
 5.2238917E-01  1.0952174E+03
 5.2543253E-01  1.1294996E+03
 5.2847594E-01  1.1222544E+03
 5.3151929E-01  1.0304459E+03
 5.3456271E-01  8.8228412E+02
 5.3760606E-01  9.4014117E+02
 5.4064947E-01  9.9409930E+02
 5.4369283E-01  1.0747625E+03
 5.4673624E-01  1.0703076E+03
 5.4977959E-01  1.0643824E+03
 5.5282301E-01  1.1482927E+03
 5.5586636E-01  1.1312180E+03
 5.5890977E-01  8.8698877E+02
 5.6195313E-01  8.9377893E+02
 5.6499654E-01  9.9580383E+02
 5.6803989E-01  1.0538412E+03
 5.7108331E-01  1.0804248E+03
 5.7412666E-01  1.1238828E+03
 5.7717007E-01  1.1387173E+03
 5.8021343E-01  1.0400198E+03
 5.8325684E-01  9.9996039E+02
 5.8630019E-01  1.0230992E+03
 5.8934361E-01  1.0532777E+03
 5.9238696E-01  1.0661869E+03
 5.9543037E-01  1.0219271E+03
 5.9847373E-01  1.0583921E+03
 6.0151714E-01  1.0735223E+03
 6.0456049E-01  1.0219741E+03
 6.0760391E-01  1.0306611E+03
 6.1064726E-01  1.0812152E+03
 6.1369067E-01  9.8931000E+02
 6.1673403E-01  9.3547827E+02
 6.1977744E-01  9.6025281E+02
 6.2282079E-01  9.5128595E+02
 6.2586421E-01  9.4969373E+02
 6.2890756E-01  1.0413971E+03
 6.3195097E-01  1.0432834E+03
 6.3499433E-01  9.6729553E+02
 6.3803774E-01  1.0088843E+03
 6.4108109E-01  1.0390457E+03
 6.4412451E-01  1.0605348E+03
 6.4716786E-01  1.0932813E+03
 6.5021127E-01  1.0016309E+03
 6.5325463E-01  9.4807355E+02
 6.5629804E-01  9.8538489E+02
 6.5934139E-01  9.7001495E+02
 6.6238481E-01  9.3475378E+02
 6.6542816E-01  1.0230717E+03
 6.6847157E-01  1.0285527E+03
 6.7151493E-01  1.0326757E+03
 6.7455834E-01  1.0593197E+03
 6.7760170E-01  1.0669274E+03
 6.8064511E-01  1.0774932E+03
 6.8368846E-01  1.0862181E+03
 6.8673187E-01  1.1316469E+03
 6.8977523E-01  1.0562098E+03
 6.9281864E-01  9.9183289E+02
 6.9586200E-01  1.0140493E+03
 6.9890541E-01  1.0700162E+03
 7.0194876E-01  1.0919006E+03
 7.0499218E-01  1.0227563E+03
 7.0803553E-01  9.6500580E+02
 7.1107894E-01  1.0062755E+03
 7.1412230E-01  1.0388506E+03
 7.1716571E-01  1.0203232E+03
 7.2020906E-01  9.7673041E+02
 7.2325248E-01  9.6048926E+02
 7.2629583E-01  1.0614170E+03
 7.2933924E-01  1.1139873E+03
 7.3238260E-01  1.1005613E+03
 7.3542601E-01  1.0164103E+03
 7.3846936E-01  9.2604486E+02
 7.4151278E-01  1.0644056E+03
 7.4455613E-01  1.1268450E+03
 7.4759954E-01  9.7894739E+02
 7.5064290E-01  1.0490471E+03
 7.5368631E-01  1.1645714E+03
 7.5672966E-01  1.1535066E+03
 7.5977308E-01  1.0966890E+03
 7.6281643E-01  9.9372681E+02
 7.6585984E-01  9.9741168E+02
 7.6890320E-01  1.0370112E+03
 7.7194661E-01  1.1237219E+03
 7.7498996E-01  1.1389229E+03
 7.7803338E-01  1.1086022E+03
 7.8107673E-01  1.0960996E+03
 7.8412014E-01  1.1202349E+03
 7.8716350E-01  1.0485781E+03
 7.9020691E-01  1.0068886E+03
 7.9325026E-01  1.0218612E+03
 7.9629368E-01  1.0074230E+03
 7.9933703E-01  1.0218734E+03
 8.0238044E-01  1.0666935E+03
 8.0542380E-01  1.0921577E+03
 8.0846721E-01  1.0951864E+03
 8.1151056E-01  1.0944346E+03
 8.1455398E-01  1.0929803E+03
 8.1759733E-01  1.0913676E+03
 8.2064074E-01  1.1069932E+03
 8.2368410E-01  1.0826178E+03
 8.2672751E-01  1.0758752E+03
 8.2977086E-01  1.0779840E+03
 8.3281428E-01  1.0927665E+03
 8.3585763E-01  1.1021758E+03
 8.3890104E-01  1.0510077E+03
 8.4194440E-01  1.0632102E+03
 8.4498781E-01  1.1141167E+03
 8.4803116E-01  1.0863417E+03
 8.5107458E-01  1.0951010E+03
 8.5411793E-01  1.0461990E+03
 8.5716134E-01  9.8307111E+02
 8.6020470E-01  9.5350427E+02
 8.6324811E-01  9.9675470E+02
 8.6629146E-01  1.0810858E+03
 8.6933488E-01  1.1553210E+03
 8.7237823E-01  1.1173931E+03
 8.7542164E-01  1.1083485E+03
 8.7846500E-01  1.1030975E+03
 8.8150841E-01  1.0329639E+03
 8.8455176E-01  9.9734845E+02
 8.8759518E-01  1.0307383E+03
 8.9063853E-01  1.0357417E+03
 8.9368194E-01  1.0549340E+03
 8.9672530E-01  1.0499335E+03
 8.9976871E-01  1.0593718E+03
 9.0281206E-01  1.1128901E+03
 9.0585548E-01  1.1875898E+03
 9.0889883E-01  1.1577661E+03
 9.1194224E-01  1.0675259E+03
 9.1498560E-01  1.0985687E+03
 9.1802901E-01  1.1207345E+03
 9.2107236E-01  1.0661499E+03
 9.2411578E-01  1.0651135E+03
 9.2715913E-01  1.0901376E+03
 9.3020254E-01  1.1176489E+03
 9.3324590E-01  1.0995966E+03
 9.3628931E-01  1.0682942E+03
 9.3933266E-01  1.0685006E+03
 9.4237608E-01  1.0625503E+03
 9.4541943E-01  1.0257037E+03
 9.4846284E-01  1.0456282E+03
 9.5150620E-01  1.0283171E+03
 9.5454961E-01  1.0117008E+03
 9.5759296E-01  1.0197946E+03
 9.6063638E-01  9.8933508E+02
 9.6367973E-01  1.0448477E+03
 9.6672314E-01  1.1192333E+03
 9.6976650E-01  1.1024279E+03
 9.7280991E-01  1.0682650E+03
 9.7585326E-01  1.1037515E+03
 9.7889668E-01  1.1332041E+03
 9.8194003E-01  1.1125023E+03
 9.8498344E-01  1.0944109E+03
 9.8802680E-01  1.1180630E+03
 9.9107021E-01  1.1284153E+03
 9.9411356E-01  1.0493340E+03
 9.9715698E-01  1.0698622E+03
 1.0002004E+00  1.1230992E+03
 1.0032437E+00  1.1134127E+03
 1.0062871E+00  1.0663737E+03
 1.0093305E+00  1.0693983E+03
 1.0123739E+00  1.1285143E+03
 1.0154172E+00  1.0910769E+03
 1.0184606E+00  1.0280974E+03
 1.0215040E+00  1.1156654E+03
 1.0245475E+00  1.1885061E+03
 1.0275908E+00  1.1488263E+03
 1.0306342E+00  1.0886892E+03
 1.0336776E+00  1.0472932E+03
 1.0367210E+00  1.0438022E+03
 1.0397643E+00  1.0757612E+03
 1.0428077E+00  1.0428231E+03
 1.0458511E+00  1.0612538E+03
 1.0488945E+00  1.1176147E+03
 1.0519378E+00  9.8955121E+02
 1.0549812E+00  9.8240259E+02
 1.0580246E+00  1.0397289E+03
 1.0610681E+00  1.0530540E+03
 1.0641114E+00  1.0630089E+03
 1.0671548E+00  1.0067039E+03
 1.0701982E+00  1.0536093E+03
 1.0732416E+00  1.1707992E+03
 1.0762849E+00  1.1281774E+03
 1.0793283E+00  1.0557429E+03
 1.0823717E+00  1.0896462E+03
 1.0854151E+00  1.1338873E+03
 1.0884584E+00  1.0974940E+03
 1.0915018E+00  1.0514641E+03
 1.0945452E+00  1.0356819E+03
 1.0975887E+00  1.1335807E+03
 1.1006320E+00  1.1568094E+03
 1.1036754E+00  1.1230959E+03
 1.1067188E+00  1.1497485E+03
 1.1097622E+00  1.1387131E+03
 1.1128055E+00  1.0937775E+03
 1.1158489E+00  1.0771660E+03
 1.1188923E+00  1.1386791E+03
 1.1219357E+00  1.1669596E+03
 1.1249790E+00  1.1715361E+03
 1.1280224E+00  1.1037046E+03
 1.1310658E+00  1.0601064E+03
 1.1341093E+00  1.0921313E+03
 1.1371526E+00  1.0972556E+03
 1.1401960E+00  1.0915311E+03
 1.1432394E+00  1.1106782E+03
 1.1462828E+00  1.0789427E+03
 1.1493261E+00  1.0351826E+03
 1.1523695E+00  1.0502605E+03
 1.1554129E+00  1.0951299E+03
 1.1584562E+00  1.0745403E+03
 1.1614996E+00  1.0396841E+03
 1.1645430E+00  1.0960697E+03
 1.1675864E+00  1.1603557E+03
 1.1706297E+00  1.1975758E+03
 1.1736732E+00  1.1766138E+03
 1.1767166E+00  1.1296008E+03
 1.1797600E+00  1.0869409E+03
 1.1828033E+00  1.0760371E+03
 1.1858467E+00  1.1033041E+03
 1.1888901E+00  1.1294590E+03
 1.1919335E+00  1.1398142E+03
 1.1949768E+00  1.1096561E+03
 1.1980202E+00  1.1446919E+03
 1.2010636E+00  1.1203081E+03
 1.2041070E+00  1.0828267E+03
 1.2071503E+00  1.0389677E+03
 1.2101938E+00  1.0437451E+03
 1.2132372E+00  1.1377872E+03
 1.2162806E+00  1.1697743E+03
 1.2193239E+00  1.1619254E+03
 1.2223673E+00  1.1494781E+03
 1.2254107E+00  1.1890887E+03
 1.2284541E+00  1.1796919E+03
 1.2314974E+00  1.1415940E+03
 1.2345408E+00  1.1407903E+03
 1.2375842E+00  1.1585986E+03
 1.2406276E+00  1.1290911E+03
 1.2436709E+00  1.1139008E+03
 1.2467144E+00  1.1090037E+03
 1.2497578E+00  1.1087163E+03
 1.2528012E+00  1.1310302E+03
 1.2558445E+00  1.1364969E+03
 1.2588879E+00  1.1206886E+03
 1.2619313E+00  1.1285391E+03
 1.2649747E+00  1.2014854E+03
 1.2680180E+00  1.2055851E+03
 1.2710614E+00  1.1456804E+03
 1.2741048E+00  1.1235078E+03
 1.2771482E+00  1.1341608E+03
 1.2801915E+00  1.2216189E+03
 1.2832350E+00  1.1886718E+03
 1.2862784E+00  1.0832986E+03
 1.2893218E+00  1.1236395E+03
 1.2923651E+00  1.1521046E+03
 1.2954085E+00  1.2034949E+03
 1.2984519E+00  1.2151124E+03
 1.3014953E+00  1.1734564E+03
 1.3045386E+00  1.1064803E+03
 1.3075820E+00  1.0752521E+03
 1.3106254E+00  1.1267684E+03
 1.3136688E+00  1.1762782E+03
 1.3167121E+00  1.1966227E+03
 1.3197556E+00  1.1656757E+03
 1.3227990E+00  1.1651404E+03
 1.3258424E+00  1.1275381E+03
 1.3288857E+00  1.1005745E+03
 1.3319291E+00  1.1423677E+03
 1.3349725E+00  1.1890582E+03
 1.3380159E+00  1.2058640E+03
 1.3410592E+00  1.1890804E+03
 1.3441026E+00  1.1672056E+03
 1.3471460E+00  1.1339785E+03
 1.3501894E+00  1.1203114E+03
 1.3532327E+00  1.1965167E+03
 1.3562762E+00  1.2011936E+03
 1.3593196E+00  1.1656547E+03
 1.3623630E+00  1.1510924E+03
 1.3654063E+00  1.1286139E+03
 1.3684497E+00  1.1391628E+03
 1.3714931E+00  1.1458218E+03
 1.3745365E+00  1.1631826E+03
 1.3775798E+00  1.1222590E+03
 1.3806232E+00  1.1649580E+03
 1.3836666E+00  1.2362117E+03
 1.3867100E+00  1.1868888E+03
 1.3897533E+00  1.1397445E+03
 1.3927968E+00  1.1539070E+03
 1.3958402E+00  1.1798342E+03
 1.3988836E+00  1.1830649E+03
 1.4019269E+00  1.2333070E+03
 1.4049703E+00  1.2401821E+03
 1.4080137E+00  1.2249950E+03
 1.4110571E+00  1.1870038E+03
 1.4141004E+00  1.1533842E+03
 1.4171438E+00  1.1643007E+03
 1.4201872E+00  1.1435996E+03
 1.4232306E+00  1.1427357E+03
 1.4262739E+00  1.1944298E+03
 1.4293174E+00  1.2470155E+03
 1.4323608E+00  1.2495072E+03
 1.4354042E+00  1.2755188E+03
 1.4384475E+00  1.2957330E+03
 1.4414909E+00  1.3016841E+03
 1.4445343E+00  1.2749102E+03
 1.4475777E+00  1.2620687E+03
 1.4506210E+00  1.2460587E+03
 1.4536644E+00  1.2047041E+03
 1.4567078E+00  1.1849874E+03
 1.4597512E+00  1.1806299E+03
 1.4627945E+00  1.1901464E+03
 1.4658380E+00  1.1932521E+03
 1.4688814E+00  1.2420522E+03
 1.4719248E+00  1.2647651E+03
 1.4749681E+00  1.2186561E+03
 1.4780115E+00  1.2108151E+03
 1.4810549E+00  1.2903762E+03
 1.4840983E+00  1.3241115E+03
 1.4871416E+00  1.2746798E+03
 1.4901850E+00  1.1735671E+03
 1.4932284E+00  1.1992495E+03
 1.4962718E+00  1.3034905E+03
 1.4993151E+00  1.3324153E+03
 1.5023586E+00  1.3224907E+03
 1.5054020E+00  1.2558625E+03
 1.5084454E+00  1.2237025E+03
 1.5114887E+00  1.2747441E+03
 1.5145321E+00  1.3664912E+03
 1.5175755E+00  1.4008717E+03
 1.5206189E+00  1.4956205E+03
 1.5236622E+00  1.5020258E+03
 1.5267056E+00  1.4942786E+03
 1.5297490E+00  1.5511428E+03
 1.5327924E+00  1.5524305E+03
 1.5358357E+00  1.6046807E+03
 1.5388792E+00  1.6167979E+03
 1.5419226E+00  1.5512173E+03
 1.5449660E+00  1.5155481E+03
 1.5480093E+00  1.5011885E+03
 1.5510527E+00  1.3519656E+03
 1.5540961E+00  1.2852562E+03
 1.5571395E+00  1.3092163E+03
 1.5601828E+00  1.3015730E+03
 1.5632262E+00  1.2684349E+03
 1.5662696E+00  1.2402731E+03
 1.5693130E+00  1.2490145E+03
 1.5723563E+00  1.2688643E+03
 1.5753998E+00  1.2627522E+03
 1.5784432E+00  1.2892789E+03
 1.5814866E+00  1.2500874E+03
 1.5845299E+00  1.2022021E+03
 1.5875733E+00  1.2098676E+03
 1.5906167E+00  1.1979508E+03
 1.5936601E+00  1.2003071E+03
 1.5967034E+00  1.2499761E+03
 1.5997468E+00  1.2253478E+03
 1.6027902E+00  1.2422856E+03
 1.6058336E+00  1.3142998E+03
 1.6088769E+00  1.2833899E+03
 1.6119204E+00  1.2325295E+03
 1.6149638E+00  1.2503131E+03
 1.6180072E+00  1.2827034E+03
 1.6210505E+00  1.2630620E+03
 1.6240939E+00  1.2114646E+03
 1.6271373E+00  1.2120146E+03
 1.6301807E+00  1.2169453E+03
 1.6332240E+00  1.1995549E+03
 1.6362674E+00  1.2263361E+03
 1.6393108E+00  1.2116481E+03
 1.6423542E+00  1.2107899E+03
 1.6453975E+00  1.2486547E+03
 1.6484410E+00  1.2155596E+03
 1.6514844E+00  1.1741407E+03
 1.6545278E+00  1.2216847E+03
 1.6575711E+00  1.2408203E+03
 1.6606145E+00  1.2288533E+03
 1.6636579E+00  1.2191243E+03
 1.6667013E+00  1.2459589E+03
 1.6697446E+00  1.2545984E+03
 1.6727880E+00  1.2014736E+03
 1.6758314E+00  1.2287527E+03
 1.6788749E+00  1.2301504E+03
 1.6819181E+00  1.1889001E+03
 1.6849616E+00  1.1778781E+03
 1.6880050E+00  1.1603223E+03
 1.6910484E+00  1.1881506E+03
 1.6940917E+00  1.2634463E+03
 1.6971351E+00  1.2402317E+03
 1.7001785E+00  1.1849355E+03
 1.7032219E+00  1.2078379E+03
 1.7062652E+00  1.2383656E+03
 1.7093086E+00  1.2753649E+03
 1.7123520E+00  1.3005347E+03
 1.7153955E+00  1.2934226E+03
 1.7184387E+00  1.2693749E+03
 1.7214822E+00  1.2687358E+03
 1.7245256E+00  1.3176168E+03
 1.7275690E+00  1.3034098E+03
 1.7306123E+00  1.2629951E+03
 1.7336557E+00  1.2193688E+03
 1.7366991E+00  1.1834874E+03
 1.7397425E+00  1.1998307E+03
 1.7427858E+00  1.2601007E+03
 1.7458292E+00  1.2566367E+03
 1.7488726E+00  1.1844027E+03
 1.7519161E+00  1.1800981E+03
 1.7549593E+00  1.1773711E+03
 1.7580028E+00  1.1855751E+03
 1.7610462E+00  1.2256776E+03
 1.7640896E+00  1.2185231E+03
 1.7671329E+00  1.2358763E+03
 1.7701763E+00  1.3197228E+03
 1.7732197E+00  1.2499355E+03
 1.7762631E+00  1.2033904E+03
 1.7793064E+00  1.2417509E+03
 1.7823498E+00  1.2392426E+03
 1.7853932E+00  1.2546736E+03
 1.7884367E+00  1.2665897E+03
 1.7914799E+00  1.2934841E+03
 1.7945234E+00  1.2954192E+03
 1.7975668E+00  1.2569205E+03
 1.8006102E+00  1.2373743E+03
 1.8036535E+00  1.2208662E+03
 1.8066969E+00  1.2290736E+03
 1.8097403E+00  1.2427162E+03
 1.8127837E+00  1.2034344E+03
 1.8158270E+00  1.2189680E+03
 1.8188704E+00  1.2496976E+03
 1.8219138E+00  1.2468076E+03
 1.8249573E+00  1.2234795E+03
 1.8280005E+00  1.2860980E+03
 1.8310440E+00  1.3288220E+03
 1.8340874E+00  1.3006567E+03
 1.8371308E+00  1.3090839E+03
 1.8401741E+00  1.3005449E+03
 1.8432175E+00  1.3010209E+03
 1.8462609E+00  1.2420209E+03
 1.8493043E+00  1.2532815E+03
 1.8523476E+00  1.2685020E+03
 1.8553910E+00  1.2131747E+03
 1.8584344E+00  1.2158464E+03
 1.8614779E+00  1.2855691E+03
 1.8645211E+00  1.2902806E+03
 1.8675646E+00  1.2273800E+03
 1.8706080E+00  1.1886454E+03
 1.8736514E+00  1.2447524E+03
 1.8766947E+00  1.2818203E+03
 1.8797381E+00  1.2547386E+03
 1.8827815E+00  1.2652175E+03
 1.8858249E+00  1.2901775E+03
 1.8888682E+00  1.2940630E+03
 1.8919116E+00  1.2549984E+03
 1.8949550E+00  1.2634541E+03
 1.8979985E+00  1.3063005E+03
 1.9010417E+00  1.2853673E+03
 1.9040852E+00  1.2942072E+03
 1.9071286E+00  1.2547405E+03
 1.9101719E+00  1.2689004E+03
 1.9132153E+00  1.3457885E+03
 1.9162587E+00  1.3279763E+03
 1.9193021E+00  1.2861134E+03
 1.9223454E+00  1.2866854E+03
 1.9253888E+00  1.2986608E+03
 1.9284322E+00  1.2816025E+03
 1.9314756E+00  1.2717764E+03
 1.9345189E+00  1.2759500E+03
 1.9375623E+00  1.2481488E+03
 1.9406058E+00  1.2634641E+03
 1.9436492E+00  1.2864650E+03
 1.9466925E+00  1.2638793E+03
 1.9497359E+00  1.2399163E+03
 1.9527793E+00  1.2598389E+03
 1.9558227E+00  1.3031514E+03
 1.9588660E+00  1.3497666E+03
 1.9619094E+00  1.3376237E+03
 1.9649528E+00  1.3295117E+03
 1.9679962E+00  1.3469478E+03
 1.9710395E+00  1.2850297E+03
 1.9740829E+00  1.2269155E+03
 1.9771264E+00  1.3161005E+03
 1.9801698E+00  1.3197084E+03
 1.9832131E+00  1.3049277E+03
 1.9862565E+00  1.3231666E+03
 1.9892999E+00  1.2713491E+03
 1.9923433E+00  1.2512043E+03
 1.9953866E+00  1.2544714E+03
 1.9984300E+00  1.2603580E+03
 2.0014734E+00  1.2787776E+03
 2.0045168E+00  1.2802026E+03
 2.0075603E+00  1.2614785E+03
 2.0106037E+00  1.2489242E+03
 2.0136468E+00  1.2470314E+03
 2.0166903E+00  1.2752432E+03
 2.0197337E+00  1.3374667E+03
 2.0227771E+00  1.3621620E+03
 2.0258205E+00  1.3314600E+03
 2.0288639E+00  1.3434340E+03
 2.0319073E+00  1.3380476E+03
 2.0349507E+00  1.2813585E+03
 2.0379939E+00  1.3183632E+03
 2.0410373E+00  1.3583275E+03
 2.0440807E+00  1.3076971E+03
 2.0471241E+00  1.2529520E+03
 2.0501676E+00  1.2902249E+03
 2.0532110E+00  1.3416041E+03
 2.0562544E+00  1.3563254E+03
 2.0592978E+00  1.3535281E+03
 2.0623410E+00  1.3208623E+03
 2.0653844E+00  1.3559370E+03
 2.0684278E+00  1.3530409E+03
 2.0714712E+00  1.2999553E+03
 2.0745146E+00  1.3186487E+03
 2.0775580E+00  1.3100464E+03
 2.0806015E+00  1.2691943E+03
 2.0836449E+00  1.2555127E+03
 2.0866880E+00  1.2412898E+03
 2.0897315E+00  1.3248119E+03
 2.0927749E+00  1.3651182E+03
 2.0958183E+00  1.3546993E+03
 2.0988617E+00  1.3619369E+03
 2.1019051E+00  1.3827251E+03
 2.1049485E+00  1.3839177E+03
 2.1079919E+00  1.3729679E+03
 2.1110351E+00  1.3270043E+03
 2.1140785E+00  1.3436476E+03
 2.1171219E+00  1.3717712E+03
 2.1201653E+00  1.4182091E+03
 2.1232088E+00  1.4296035E+03
 2.1262522E+00  1.3963031E+03
 2.1292956E+00  1.4598342E+03
 2.1323390E+00  1.5435734E+03
 2.1353822E+00  1.5935590E+03
 2.1384256E+00  1.6954465E+03
 2.1414690E+00  1.8316249E+03
 2.1445124E+00  1.9106093E+03
 2.1475558E+00  1.9930240E+03
 2.1505992E+00  2.0572307E+03
 2.1536427E+00  2.1578606E+03
 2.1566861E+00  2.2288721E+03
 2.1597292E+00  2.2286313E+03
 2.1627727E+00  2.2622512E+03
 2.1658161E+00  2.2435222E+03
 2.1688595E+00  2.1947092E+03
 2.1719029E+00  2.1700767E+03
 2.1749463E+00  2.1346428E+03
 2.1779897E+00  2.1108408E+03
 2.1810331E+00  2.0860896E+03
 2.1840763E+00  2.0166185E+03
 2.1871197E+00  1.9262255E+03
 2.1901631E+00  1.8454517E+03
 2.1932065E+00  1.7349122E+03
 2.1962500E+00  1.6366995E+03
 2.1992934E+00  1.5647927E+03
 2.2023368E+00  1.4653951E+03
 2.2053802E+00  1.4508009E+03
 2.2084234E+00  1.4886732E+03
 2.2114668E+00  1.4445120E+03
 2.2145102E+00  1.4377930E+03
 2.2175536E+00  1.4226423E+03
 2.2205970E+00  1.3379182E+03
 2.2236404E+00  1.3644518E+03
 2.2266839E+00  1.4369063E+03
 2.2297273E+00  1.4434515E+03
 2.2327704E+00  1.3791581E+03
 2.2358139E+00  1.3393505E+03
 2.2388573E+00  1.3827046E+03
 2.2419007E+00  1.4196312E+03
 2.2449441E+00  1.3981270E+03
 2.2479875E+00  1.3498223E+03
 2.2510309E+00  1.3566381E+03
 2.2540743E+00  1.3892751E+03
 2.2571175E+00  1.4332542E+03
 2.2601609E+00  1.4481794E+03
 2.2632043E+00  1.3780197E+03
 2.2662477E+00  1.3534904E+03
 2.2692912E+00  1.3732050E+03
 2.2723346E+00  1.3716324E+03
 2.2753780E+00  1.3841064E+03
 2.2784214E+00  1.3770647E+03
 2.2814646E+00  1.3834823E+03
 2.2845080E+00  1.4002620E+03
 2.2875514E+00  1.3856168E+03
 2.2905948E+00  1.3897719E+03
 2.2936382E+00  1.3896101E+03
 2.2966816E+00  1.3992051E+03
 2.2997251E+00  1.3942029E+03
 2.3027685E+00  1.3848013E+03
 2.3058116E+00  1.4053372E+03
 2.3088551E+00  1.4080089E+03
 2.3118985E+00  1.4284446E+03
 2.3149419E+00  1.4774425E+03
 2.3179853E+00  1.4679429E+03
 2.3210287E+00  1.4467418E+03
 2.3240721E+00  1.4319404E+03
 2.3271155E+00  1.4183922E+03
 2.3301587E+00  1.3865697E+03
 2.3332021E+00  1.3622322E+03
 2.3362455E+00  1.4022802E+03
 2.3392889E+00  1.4528207E+03
 2.3423324E+00  1.4203789E+03
 2.3453758E+00  1.3955878E+03
 2.3484192E+00  1.4445472E+03
 2.3514626E+00  1.4595104E+03
 2.3545058E+00  1.4316526E+03
 2.3575492E+00  1.4121218E+03
 2.3605926E+00  1.4318080E+03
 2.3636360E+00  1.4611304E+03
 2.3666794E+00  1.4362631E+03
 2.3697228E+00  1.3772124E+03
 2.3727663E+00  1.4127297E+03
 2.3758097E+00  1.5019712E+03
 2.3788528E+00  1.5032637E+03
 2.3818963E+00  1.5103126E+03
 2.3849397E+00  1.4287744E+03
 2.3879831E+00  1.3975522E+03
 2.3910265E+00  1.4672936E+03
 2.3940699E+00  1.4910865E+03
 2.3971133E+00  1.5383438E+03
 2.4001567E+00  1.5148387E+03
 2.4031999E+00  1.5029631E+03
 2.4062433E+00  1.4837997E+03
 2.4092867E+00  1.4364879E+03
 2.4123302E+00  1.4437108E+03
 2.4153736E+00  1.4732301E+03
 2.4184170E+00  1.4898956E+03
 2.4214604E+00  1.5133943E+03
 2.4245038E+00  1.5073322E+03
 2.4275470E+00  1.5175752E+03
 2.4305904E+00  1.5885062E+03
 2.4336338E+00  1.5957124E+03
 2.4366772E+00  1.5586187E+03
 2.4397206E+00  1.5629403E+03
 2.4427640E+00  1.5547090E+03
 2.4458075E+00  1.5925018E+03
 2.4488509E+00  1.6009017E+03
 2.4518940E+00  1.5484684E+03
 2.4549375E+00  1.5576628E+03
 2.4579809E+00  1.5739995E+03
 2.4610243E+00  1.5509701E+03
 2.4640677E+00  1.5729746E+03
 2.4671111E+00  1.6340731E+03
 2.4701545E+00  1.6387344E+03
 2.4731979E+00  1.6582679E+03
 2.4762411E+00  1.6786956E+03
 2.4792845E+00  1.6071234E+03
 2.4823279E+00  1.5744413E+03
 2.4853714E+00  1.6512031E+03
 2.4884148E+00  1.6872418E+03
 2.4914582E+00  1.6629569E+03
 2.4945016E+00  1.6808119E+03
 2.4975450E+00  1.7182296E+03
 2.5005882E+00  1.6940674E+03
 2.5036316E+00  1.6827892E+03
 2.5066750E+00  1.7264100E+03
 2.5097184E+00  1.7568083E+03
 2.5127618E+00  1.7268447E+03
 2.5158052E+00  1.7347129E+03
 2.5188487E+00  1.7583236E+03
 2.5218921E+00  1.7707682E+03
 2.5249352E+00  1.8188291E+03
 2.5279787E+00  1.8197546E+03
 2.5310221E+00  1.8167004E+03
 2.5340655E+00  1.8345992E+03
 2.5371089E+00  1.8606962E+03
 2.5401523E+00  1.8666484E+03
 2.5431957E+00  1.8449739E+03
 2.5462391E+00  1.9070470E+03
 2.5492823E+00  1.9597153E+03
 2.5523257E+00  2.0036833E+03
 2.5553691E+00  2.0484705E+03
 2.5584126E+00  2.0201476E+03
 2.5614560E+00  2.0382043E+03
 2.5644994E+00  2.0908228E+03
 2.5675428E+00  2.1038447E+03
 2.5705862E+00  2.1533750E+03
 2.5736294E+00  2.2193276E+03
 2.5766728E+00  2.2873508E+03
 2.5797162E+00  2.3105593E+03
 2.5827596E+00  2.3521082E+03
 2.5858030E+00  2.4017041E+03
 2.5888464E+00  2.4064063E+03
 2.5918899E+00  2.5055706E+03
 2.5949333E+00  2.6176804E+03
 2.5979764E+00  2.7831355E+03
 2.6010199E+00  2.8776145E+03
 2.6040633E+00  2.9910032E+03
 2.6071067E+00  3.1377351E+03
 2.6101501E+00  3.2912676E+03
 2.6131935E+00  3.6299551E+03
 2.6162369E+00  3.9500295E+03
 2.6192803E+00  4.2996343E+03
 2.6223235E+00  4.8744702E+03
 2.6253669E+00  5.6537593E+03
 2.6284103E+00  6.9110400E+03
 2.6314538E+00  8.5674238E+03
 2.6344972E+00  1.1208740E+04
 2.6375406E+00  1.5195409E+04
 2.6405840E+00  2.0302898E+04
 2.6436274E+00  2.7832295E+04
 2.6466706E+00  3.4512777E+04
 2.6497140E+00  4.0659859E+04
 2.6527574E+00  4.2423535E+04
 2.6558008E+00  4.0441125E+04
 2.6588442E+00  3.4247297E+04
 2.6618876E+00  2.7858799E+04
 2.6649311E+00  2.0973025E+04
 2.6679742E+00  1.6294039E+04
 2.6710176E+00  1.2744413E+04
 2.6740611E+00  1.0416319E+04
 2.6771045E+00  9.1721143E+03
 2.6801479E+00  8.3437646E+03
 2.6831913E+00  8.0269111E+03
 2.6862347E+00  7.8969751E+03
 2.6892781E+00  8.0968896E+03
 2.6923213E+00  8.3963223E+03
 2.6953647E+00  8.9732979E+03
 2.6984081E+00  9.7929795E+03
 2.7014515E+00  1.0746129E+04
 2.7044950E+00  1.2492455E+04
 2.7075384E+00  1.4747481E+04
 2.7105818E+00  1.8751332E+04
 2.7136252E+00  2.5818363E+04
 2.7166684E+00  3.7100570E+04
 2.7197118E+00  6.3534574E+04
 2.7227552E+00  1.0328723E+05
 2.7257986E+00  1.7077986E+05
 2.7288420E+00  2.3821909E+05
 2.7318854E+00  2.8142981E+05
 2.7349288E+00  2.6670763E+05
 2.7379723E+00  2.1331628E+05
 2.7410154E+00  1.3475814E+05
 2.7440588E+00  8.4393133E+04
 2.7471023E+00  4.9283738E+04
 2.7501457E+00  3.1285697E+04
 2.7531891E+00  2.2063348E+04
 2.7562325E+00  1.6155242E+04
 2.7592759E+00  1.3191773E+04
 2.7623193E+00  1.0970667E+04
 2.7653625E+00  9.5199248E+03
 2.7684059E+00  8.4662393E+03
 2.7714493E+00  7.5712988E+03
 2.7744927E+00  6.9580098E+03
 2.7775362E+00  6.2811201E+03
 2.7805796E+00  5.7658794E+03
 2.7836230E+00  5.3645454E+03
 2.7866664E+00  4.9399385E+03
 2.7897096E+00  4.6294761E+03
 2.7927530E+00  4.3175459E+03
 2.7957964E+00  4.1156768E+03
 2.7988398E+00  3.9200085E+03
 2.8018832E+00  3.7135313E+03
 2.8049266E+00  3.5735796E+03
 2.8079700E+00  3.4180203E+03
 2.8110135E+00  3.2879351E+03
 2.8140566E+00  3.1381113E+03
 2.8171000E+00  3.0025342E+03
 2.8201435E+00  2.9312939E+03
 2.8231869E+00  2.8278418E+03
 2.8262303E+00  2.7233203E+03
 2.8292737E+00  2.6742854E+03
 2.8323171E+00  2.6354775E+03
 2.8353605E+00  2.5937710E+03
 2.8384037E+00  2.5203362E+03
 2.8414471E+00  2.4633054E+03
 2.8444905E+00  2.4420220E+03
 2.8475339E+00  2.3836833E+03
 2.8505774E+00  2.3429875E+03
 2.8536208E+00  2.3134070E+03
 2.8566642E+00  2.2737563E+03
 2.8597076E+00  2.2205105E+03
 2.8627508E+00  2.2210483E+03
 2.8657942E+00  2.2092717E+03
 2.8688376E+00  2.1326018E+03
 2.8718810E+00  2.1175107E+03
 2.8749244E+00  2.0964358E+03
 2.8779678E+00  2.0692488E+03
 2.8810112E+00  2.0448263E+03
 2.8840547E+00  2.0242827E+03
 2.8870978E+00  2.0181942E+03
 2.8901412E+00  2.0134698E+03
 2.8931847E+00  1.9648113E+03
 2.8962281E+00  1.9080273E+03
 2.8992715E+00  1.8930483E+03
 2.9023149E+00  1.9234893E+03
 2.9053583E+00  1.9280466E+03
 2.9084017E+00  1.8503694E+03
 2.9114449E+00  1.8505413E+03
 2.9144883E+00  1.8311401E+03
 2.9175317E+00  1.8504852E+03
 2.9205751E+00  1.8848369E+03
 2.9236186E+00  1.8013884E+03
 2.9266620E+00  1.8140729E+03
 2.9297054E+00  1.8752422E+03
 2.9327488E+00  1.8614253E+03
 2.9357920E+00  1.8453373E+03
 2.9388354E+00  1.8181650E+03
 2.9418788E+00  1.8148677E+03
 2.9449222E+00  1.8258920E+03
 2.9479656E+00  1.7944845E+03
 2.9510090E+00  1.7736187E+03
 2.9540524E+00  1.7700912E+03
 2.9570959E+00  1.7795697E+03
 2.9601390E+00  1.7893983E+03
 2.9631824E+00  1.7713258E+03
 2.9662259E+00  1.7515782E+03
 2.9692693E+00  1.7395940E+03
 2.9723127E+00  1.7845771E+03
 2.9753561E+00  1.8113771E+03
 2.9783995E+00  1.7950521E+03
 2.9814429E+00  1.7802021E+03
 2.9844861E+00  1.7631427E+03
 2.9875295E+00  1.7987036E+03
 2.9905729E+00  1.7948464E+03
 2.9936163E+00  1.7859081E+03
 2.9966598E+00  1.8342946E+03
 2.9997032E+00  1.8171444E+03
 3.0027466E+00  1.7990039E+03
 3.0057900E+00  1.8127222E+03
 3.0088332E+00  1.7579092E+03
 3.0118766E+00  1.7326885E+03
 3.0149200E+00  1.7718640E+03
 3.0179634E+00  1.7879558E+03
 3.0210068E+00  1.7530282E+03
 3.0240502E+00  1.7544888E+03
 3.0270936E+00  1.7644714E+03
 3.0301371E+00  1.7660684E+03
 3.0331802E+00  1.7832910E+03
 3.0362236E+00  1.7847709E+03
 3.0392671E+00  1.7802789E+03
 3.0423105E+00  1.7902090E+03
 3.0453539E+00  1.8147383E+03
 3.0483973E+00  1.7926046E+03
 3.0514407E+00  1.8255310E+03
 3.0544841E+00  1.8898240E+03
 3.0575273E+00  1.8878439E+03
 3.0605707E+00  1.8715624E+03
 3.0636141E+00  1.8753032E+03
 3.0666575E+00  1.8679546E+03
 3.0697010E+00  1.9083285E+03
 3.0727444E+00  1.9310950E+03
 3.0757878E+00  1.9846563E+03
 3.0788312E+00  2.0440869E+03
 3.0818744E+00  2.0992578E+03
 3.0849178E+00  2.1695464E+03
 3.0879612E+00  2.1646707E+03
 3.0910046E+00  2.1135654E+03
 3.0940480E+00  2.1031975E+03
 3.0970914E+00  2.0273740E+03
 3.1001348E+00  1.9285258E+03
 3.1031783E+00  1.8830004E+03
 3.1062214E+00  1.8202429E+03
 3.1092649E+00  1.7792552E+03
 3.1123083E+00  1.7652441E+03
 3.1153517E+00  1.7592299E+03
 3.1183951E+00  1.7675635E+03
 3.1214385E+00  1.7930291E+03
 3.1244819E+00  1.7724835E+03
 3.1275253E+00  1.7479587E+03
 3.1305685E+00  1.8285710E+03
 3.1336119E+00  1.8535294E+03
 3.1366553E+00  1.8506624E+03
 3.1396987E+00  1.8985042E+03
 3.1427422E+00  1.9477083E+03
 3.1457856E+00  2.0213923E+03
 3.1488290E+00  2.0741907E+03
 3.1518724E+00  2.1620583E+03
 3.1549156E+00  2.1848474E+03
 3.1579590E+00  2.1143096E+03
 3.1610024E+00  2.0619524E+03
 3.1640458E+00  2.0337152E+03
 3.1670892E+00  1.9676570E+03
 3.1701326E+00  1.8556494E+03
 3.1731761E+00  1.7589579E+03
 3.1762195E+00  1.7250667E+03
 3.1792626E+00  1.7133225E+03
 3.1823061E+00  1.7685167E+03
 3.1853495E+00  1.7691151E+03
 3.1883929E+00  1.6987400E+03
 3.1914363E+00  1.7116488E+03
 3.1944797E+00  1.7420109E+03
 3.1975231E+00  1.7489626E+03
 3.2005665E+00  1.7291443E+03
 3.2036097E+00  1.6988033E+03
 3.2066531E+00  1.6908646E+03
 3.2096965E+00  1.6798059E+03
 3.2127399E+00  1.6897914E+03
 3.2157834E+00  1.7146873E+03
 3.2188268E+00  1.7126356E+03
 3.2218702E+00  1.7146353E+03
 3.2249136E+00  1.6906891E+03
 3.2279568E+00  1.6659872E+03
 3.2310002E+00  1.6906342E+03
 3.2340436E+00  1.7213553E+03
 3.2370870E+00  1.7089176E+03
 3.2401304E+00  1.7544595E+03
 3.2431738E+00  1.7814917E+03
 3.2462173E+00  1.7401724E+03
 3.2492607E+00  1.7279739E+03
 3.2523038E+00  1.7459205E+03
 3.2553473E+00  1.7287181E+03
 3.2583907E+00  1.7125499E+03
 3.2614341E+00  1.7151187E+03
 3.2644775E+00  1.7013319E+03
 3.2675209E+00  1.6832534E+03
 3.2705643E+00  1.6700010E+03
 3.2736077E+00  1.6959526E+03
 3.2766509E+00  1.6942665E+03
 3.2796943E+00  1.6481149E+03
 3.2827377E+00  1.6945542E+03
 3.2857811E+00  1.7366476E+03
 3.2888246E+00  1.7204264E+03
 3.2918680E+00  1.7077367E+03
 3.2949114E+00  1.7017428E+03
 3.2979548E+00  1.6986876E+03
 3.3009980E+00  1.6926564E+03
 3.3040414E+00  1.6723849E+03
 3.3070848E+00  1.6987997E+03
 3.3101282E+00  1.7065981E+03
 3.3131716E+00  1.6859166E+03
 3.3162150E+00  1.7020763E+03
 3.3192585E+00  1.7382896E+03
 3.3223019E+00  1.7434347E+03
 3.3253450E+00  1.7318508E+03
 3.3283885E+00  1.7039734E+03
 3.3314319E+00  1.7031019E+03
 3.3344753E+00  1.7229771E+03
 3.3375187E+00  1.7547964E+03
 3.3405621E+00  1.7668859E+03
 3.3436055E+00  1.7415928E+03
 3.3466489E+00  1.7227195E+03
 3.3496921E+00  1.7278988E+03
 3.3527355E+00  1.7665712E+03
 3.3557789E+00  1.7577054E+03
 3.3588223E+00  1.7256096E+03
 3.3618658E+00  1.7292281E+03
 3.3649092E+00  1.7416353E+03
 3.3679526E+00  1.7482258E+03
 3.3709960E+00  1.7613051E+03
 3.3740392E+00  1.7770885E+03
 3.3770826E+00  1.7763748E+03
 3.3801260E+00  1.7876326E+03
 3.3831694E+00  1.7853379E+03
 3.3862128E+00  1.7727548E+03
 3.3892562E+00  1.7772600E+03
 3.3922997E+00  1.7908591E+03
 3.3953428E+00  1.8016400E+03
 3.3983862E+00  1.7868857E+03
 3.4014297E+00  1.7749026E+03
 3.4044731E+00  1.7889473E+03
 3.4075165E+00  1.8114960E+03
 3.4105599E+00  1.8137991E+03
 3.4136033E+00  1.7959509E+03
 3.4166467E+00  1.7990540E+03
 3.4196899E+00  1.8478571E+03
 3.4227333E+00  1.8855374E+03
 3.4257767E+00  1.8377955E+03
 3.4288201E+00  1.8188376E+03
 3.4318635E+00  1.8378987E+03
 3.4349070E+00  1.8383303E+03
 3.4379504E+00  1.8302760E+03
 3.4409938E+00  1.8337885E+03
 3.4440370E+00  1.8518285E+03
 3.4470804E+00  1.8886162E+03
 3.4501238E+00  1.8883317E+03
 3.4531672E+00  1.8728134E+03
 3.4562106E+00  1.8459415E+03
 3.4592540E+00  1.8460366E+03
 3.4622974E+00  1.8307568E+03
 3.4653409E+00  1.8106251E+03
 3.4683840E+00  1.7833274E+03
 3.4714274E+00  1.8068187E+03
 3.4744709E+00  1.8422234E+03
 3.4775143E+00  1.8109099E+03
 3.4805577E+00  1.7942666E+03
 3.4836011E+00  1.7899513E+03
 3.4866445E+00  1.7674907E+03
 3.4896879E+00  1.7507329E+03
 3.4927311E+00  1.7357007E+03
 3.4957745E+00  1.7575088E+03
 3.4988179E+00  1.8136569E+03
 3.5018613E+00  1.8418375E+03
 3.5049047E+00  1.7980569E+03
 3.5079482E+00  1.7591471E+03
 3.5109916E+00  1.7816467E+03
 3.5140350E+00  1.7890587E+03
 3.5170782E+00  1.7892555E+03
 3.5201216E+00  1.7933406E+03
 3.5231650E+00  1.7987101E+03
 3.5262084E+00  1.8115591E+03
 3.5292518E+00  1.8041108E+03
 3.5322952E+00  1.7928795E+03
 3.5353386E+00  1.8266389E+03
 3.5383821E+00  1.8554102E+03
 3.5414252E+00  1.8399814E+03
 3.5444686E+00  1.8056625E+03
 3.5475121E+00  1.7837274E+03
 3.5505555E+00  1.7829052E+03
 3.5535989E+00  1.7712246E+03
 3.5566423E+00  1.7605813E+03
 3.5596857E+00  1.7663230E+03
 3.5627291E+00  1.8295446E+03
 3.5657723E+00  1.8674846E+03
 3.5688157E+00  1.8782611E+03
 3.5718591E+00  1.8252905E+03
 3.5749025E+00  1.7852804E+03
 3.5779459E+00  1.8275905E+03
 3.5809894E+00  1.8421978E+03
 3.5840328E+00  1.8417991E+03
 3.5870762E+00  1.8599083E+03
 3.5901194E+00  1.8293842E+03
 3.5931628E+00  1.7971504E+03
 3.5962062E+00  1.8593838E+03
 3.5992496E+00  1.8958579E+03
 3.6022930E+00  1.8805022E+03
 3.6053364E+00  1.8580616E+03
 3.6083798E+00  1.8561665E+03
 3.6114233E+00  1.8657048E+03
 3.6144664E+00  1.8726359E+03
 3.6175098E+00  1.8968237E+03
 3.6205533E+00  1.8925470E+03
 3.6235967E+00  1.9163455E+03
 3.6266401E+00  1.9244075E+03
 3.6296835E+00  1.9432764E+03
 3.6327269E+00  1.9562646E+03
 3.6357703E+00  1.9594829E+03
 3.6388135E+00  1.9776708E+03
 3.6418569E+00  1.9854456E+03
 3.6449003E+00  2.0055198E+03
 3.6479437E+00  2.0178401E+03
 3.6509871E+00  2.0299883E+03
 3.6540306E+00  2.0078478E+03
 3.6570740E+00  2.0165112E+03
 3.6601174E+00  2.0424004E+03
 3.6631606E+00  2.0627827E+03
 3.6662040E+00  2.0814231E+03
 3.6692474E+00  2.0824656E+03
 3.6722908E+00  2.0961069E+03
 3.6753342E+00  2.1160566E+03
 3.6783776E+00  2.1465171E+03
 3.6814210E+00  2.2141682E+03
 3.6844645E+00  2.3078376E+03
 3.6875076E+00  2.3510234E+03
 3.6905510E+00  2.4005435E+03
 3.6935945E+00  2.4639392E+03
 3.6966379E+00  2.5225894E+03
 3.6996813E+00  2.6067454E+03
 3.7027247E+00  2.7210220E+03
 3.7057681E+00  2.8582559E+03
 3.7088115E+00  2.9810535E+03
 3.7118547E+00  3.0638313E+03
 3.7148981E+00  3.1209094E+03
 3.7179415E+00  3.1814507E+03
 3.7209849E+00  3.2238511E+03
 3.7240283E+00  3.2672256E+03
 3.7270718E+00  3.3240740E+03
 3.7301152E+00  3.4017429E+03
 3.7331586E+00  3.5013977E+03
 3.7362018E+00  3.6083982E+03
 3.7392452E+00  3.7668142E+03
 3.7422886E+00  3.9824063E+03
 3.7453320E+00  4.3137925E+03
 3.7483754E+00  4.6959248E+03
 3.7514188E+00  5.2398198E+03
 3.7544622E+00  5.8184956E+03
 3.7575057E+00  6.4316011E+03
 3.7605488E+00  6.8900615E+03
 3.7635922E+00  7.0585591E+03
 3.7666357E+00  6.9973643E+03
 3.7696791E+00  6.6623657E+03
 3.7727225E+00  6.1707256E+03
 3.7757659E+00  5.5418164E+03
 3.7788093E+00  4.9370845E+03
 3.7818527E+00  4.3258560E+03
 3.7848959E+00  3.8474758E+03
 3.7879393E+00  3.4627363E+03
 3.7909827E+00  3.1345662E+03
 3.7940261E+00  2.9103125E+03
 3.7970695E+00  2.7169924E+03
 3.8001130E+00  2.6108525E+03
 3.8031564E+00  2.5172820E+03
 3.8061998E+00  2.4645493E+03
 3.8092430E+00  2.4540137E+03
 3.8122864E+00  2.4047734E+03
 3.8153298E+00  2.3465669E+03
 3.8183732E+00  2.2843123E+03
 3.8214166E+00  2.2064504E+03
 3.8244600E+00  2.2102524E+03
 3.8275034E+00  2.2364731E+03
 3.8305469E+00  2.2178162E+03
 3.8335900E+00  2.2302585E+03
 3.8366334E+00  2.1880876E+03
 3.8396769E+00  2.1695891E+03
 3.8427203E+00  2.1760496E+03
 3.8457637E+00  2.1427322E+03
 3.8488071E+00  2.1286790E+03
 3.8518505E+00  2.1215491E+03
 3.8548939E+00  2.1116553E+03
 3.8579371E+00  2.1085410E+03
 3.8609805E+00  2.0998718E+03
 3.8640239E+00  2.0621511E+03
 3.8670673E+00  2.0576018E+03
 3.8701108E+00  2.0561655E+03
 3.8731542E+00  2.0474268E+03
 3.8761976E+00  2.0607979E+03
 3.8792410E+00  2.1022527E+03
 3.8822842E+00  2.1008181E+03
 3.8853276E+00  2.0743198E+03
 3.8883710E+00  2.1338169E+03
 3.8914144E+00  2.1423616E+03
 3.8944578E+00  2.1030286E+03
 3.8975012E+00  2.1413645E+03
 3.9005446E+00  2.1424238E+03
 3.9035881E+00  2.1080088E+03
 3.9066312E+00  2.0780090E+03
 3.9096746E+00  2.0841626E+03
 3.9127181E+00  2.1320935E+03
 3.9157615E+00  2.0958914E+03
 3.9188049E+00  2.0332181E+03
 3.9218483E+00  2.1010413E+03
 3.9248917E+00  2.1590566E+03
 3.9279351E+00  2.1376917E+03
 3.9309783E+00  2.1144172E+03
 3.9340217E+00  2.1091736E+03
 3.9370651E+00  2.1343882E+03
 3.9401085E+00  2.1694124E+03
 3.9431520E+00  2.1527253E+03
 3.9461954E+00  2.1415784E+03
 3.9492388E+00  2.1482097E+03
 3.9522822E+00  2.1529375E+03
 3.9553254E+00  2.1717627E+03
 3.9583688E+00  2.1684180E+03
 3.9614122E+00  2.1682695E+03
 3.9644556E+00  2.1667546E+03
 3.9674990E+00  2.1572544E+03
 3.9705424E+00  2.1758096E+03
 3.9735858E+00  2.2127209E+03
 3.9766293E+00  2.2427056E+03
 3.9796724E+00  2.2479080E+03
 3.9827158E+00  2.2315608E+03
 3.9857593E+00  2.2211235E+03
 3.9888027E+00  2.2118804E+03
 3.9918461E+00  2.2357280E+03
 3.9948895E+00  2.2484832E+03
 3.9979329E+00  2.2744009E+03
 4.0009761E+00  2.2684827E+03
 4.0040197E+00  2.2772031E+03
 4.0070629E+00  2.3071230E+03
 4.0101066E+00  2.2796990E+03
 4.0131497E+00  2.2782542E+03
 4.0161929E+00  2.3076689E+03
 4.0192366E+00  2.3004448E+03
 4.0222797E+00  2.3046448E+03
 4.0253234E+00  2.3377471E+03
 4.0283666E+00  2.3693508E+03
 4.0314102E+00  2.3642532E+03
 4.0344534E+00  2.3265564E+03
 4.0374970E+00  2.3595078E+03
 4.0405402E+00  2.3506223E+03
 4.0435834E+00  2.3681731E+03
 4.0466270E+00  2.4107441E+03
 4.0496702E+00  2.3978665E+03
 4.0527139E+00  2.3939644E+03
 4.0557570E+00  2.3863625E+03
 4.0588007E+00  2.4103062E+03
 4.0618439E+00  2.4588857E+03
 4.0648870E+00  2.4922832E+03
 4.0679307E+00  2.4980151E+03
 4.0709739E+00  2.4753040E+03
 4.0740175E+00  2.4773152E+03
 4.0770607E+00  2.4914231E+03
 4.0801044E+00  2.4930017E+03
 4.0831475E+00  2.5212439E+03
 4.0861912E+00  2.5423442E+03
 4.0892344E+00  2.5500181E+03
 4.0922775E+00  2.5797661E+03
 4.0953212E+00  2.5488955E+03
 4.0983644E+00  2.5387107E+03
 4.1014080E+00  2.5642329E+03
 4.1044512E+00  2.6139280E+03
 4.1074948E+00  2.6567529E+03
 4.1105380E+00  2.6052944E+03
 4.1135812E+00  2.5882642E+03
 4.1166248E+00  2.6207419E+03
 4.1196680E+00  2.6744063E+03
 4.1227117E+00  2.7384307E+03
 4.1257548E+00  2.7274883E+03
 4.1287985E+00  2.7244387E+03
 4.1318417E+00  2.7421067E+03
 4.1348853E+00  2.7597075E+03
 4.1379285E+00  2.7913726E+03
 4.1409717E+00  2.7990989E+03
 4.1440153E+00  2.7838730E+03
 4.1470585E+00  2.8253450E+03
 4.1501021E+00  2.8526169E+03
 4.1531453E+00  2.8609209E+03
 4.1561890E+00  2.8592800E+03
 4.1592321E+00  2.8778997E+03
 4.1622753E+00  2.9288645E+03
 4.1653190E+00  2.9209966E+03
 4.1683621E+00  2.9142947E+03
 4.1714058E+00  2.9403721E+03
 4.1744490E+00  2.9625906E+03
 4.1774926E+00  2.9944517E+03
 4.1805358E+00  3.0316812E+03
 4.1835790E+00  3.0445239E+03
 4.1866226E+00  3.0400061E+03
 4.1896658E+00  3.0412344E+03
 4.1927094E+00  3.1073557E+03
 4.1957526E+00  3.0991008E+03
 4.1987963E+00  3.0986746E+03
 4.2018394E+00  3.1226782E+03
 4.2048831E+00  3.1244045E+03
 4.2079263E+00  3.1534521E+03
 4.2109694E+00  3.1880535E+03
 4.2140131E+00  3.2151909E+03
 4.2170563E+00  3.2505774E+03
 4.2200999E+00  3.2510820E+03
 4.2231431E+00  3.2848965E+03
 4.2261868E+00  3.3189858E+03
 4.2292299E+00  3.3258301E+03
 4.2322731E+00  3.3805078E+03
 4.2353168E+00  3.3685474E+03
 4.2383599E+00  3.3740945E+03
 4.2414036E+00  3.4019905E+03
 4.2444468E+00  3.3952549E+03
 4.2474904E+00  3.4484746E+03
 4.2505336E+00  3.5027600E+03
 4.2535772E+00  3.5539653E+03
 4.2566204E+00  3.5589941E+03
 4.2596636E+00  3.5393909E+03
 4.2627072E+00  3.5443284E+03
 4.2657504E+00  3.5524055E+03
 4.2687941E+00  3.5853501E+03
 4.2718372E+00  3.6595156E+03
 4.2748809E+00  3.6877129E+03
 4.2779241E+00  3.7215664E+03
 4.2809672E+00  3.7637844E+03
 4.2840109E+00  3.7800977E+03
 4.2870541E+00  3.7981553E+03
 4.2900977E+00  3.7945408E+03
 4.2931409E+00  3.8379463E+03
 4.2961845E+00  3.8462090E+03
 4.2992277E+00  3.8652817E+03
 4.3022714E+00  3.9237598E+03
 4.3053145E+00  3.8924307E+03
 4.3083577E+00  3.9052131E+03
 4.3114014E+00  3.9483967E+03
 4.3144445E+00  4.0069846E+03
 4.3174882E+00  4.0668699E+03
 4.3205314E+00  4.0409990E+03
 4.3235750E+00  4.0167107E+03
 4.3266182E+00  4.0184189E+03
 4.3296614E+00  4.0752231E+03
 4.3327050E+00  4.1232134E+03
 4.3357482E+00  4.1212412E+03
 4.3387918E+00  4.1080679E+03
 4.3418350E+00  4.0992554E+03
 4.3448787E+00  4.1331011E+03
 4.3479218E+00  4.1327036E+03
 4.3509655E+00  4.1288105E+03
 4.3540087E+00  4.1990459E+03
 4.3570518E+00  4.2229941E+03
 4.3600955E+00  4.2369014E+03
 4.3631387E+00  4.2896621E+03
 4.3661823E+00  4.2957915E+03
 4.3692255E+00  4.3150947E+03
 4.3722692E+00  4.3058931E+03
 4.3753123E+00  4.2892222E+03
 4.3783555E+00  4.3045269E+03
 4.3813992E+00  4.2582993E+03
 4.3844423E+00  4.2743081E+03
 4.3874860E+00  4.2788677E+03
 4.3905292E+00  4.3002993E+03
 4.3935728E+00  4.3677036E+03
 4.3966160E+00  4.3230088E+03
 4.3996596E+00  4.3386045E+03
 4.4027028E+00  4.3724741E+03
 4.4057460E+00  4.3391279E+03
 4.4087896E+00  4.3436367E+03
 4.4118328E+00  4.3055117E+03
 4.4148765E+00  4.3079214E+03
 4.4179196E+00  4.3145439E+03
 4.4209633E+00  4.3107412E+03
 4.4240065E+00  4.3586255E+03
 4.4270496E+00  4.3145210E+03
 4.4300933E+00  4.3145142E+03
 4.4331365E+00  4.3101943E+03
 4.4361801E+00  4.2758003E+03
 4.4392233E+00  4.3180942E+03
 4.4422669E+00  4.2991641E+03
 4.4453101E+00  4.3599541E+03
 4.4483538E+00  4.4079575E+03
 4.4513969E+00  4.3871636E+03
 4.4544401E+00  4.4195205E+03
 4.4574838E+00  4.4623711E+03
 4.4605269E+00  4.5318281E+03
 4.4635706E+00  4.5440273E+03
 4.4666138E+00  4.5206694E+03
 4.4696574E+00  4.5339824E+03
 4.4727006E+00  4.4554072E+03
 4.4757438E+00  4.4260190E+03
 4.4787874E+00  4.3958110E+03
 4.4818306E+00  4.3546689E+03
 4.4848742E+00  4.3936714E+03
 4.4879174E+00  4.3599355E+03
 4.4909611E+00  4.3156333E+03
 4.4940042E+00  4.3099829E+03
 4.4970479E+00  4.3160933E+03
 4.5000911E+00  4.3830659E+03
 4.5031343E+00  4.3943320E+03
 4.5061779E+00  4.3667485E+03
 4.5092211E+00  4.3570190E+03
 4.5122647E+00  4.3313184E+03
 4.5153079E+00  4.3646147E+03
 4.5183516E+00  4.3385503E+03
 4.5213947E+00  4.3470654E+03
 4.5244379E+00  4.3708687E+03
 4.5274816E+00  4.3401147E+03
 4.5305247E+00  4.3735337E+03
 4.5335684E+00  4.3855977E+03
 4.5366116E+00  4.4517734E+03
 4.5396552E+00  4.4881807E+03
 4.5426984E+00  4.4704634E+03
 4.5457420E+00  4.5175947E+03
 4.5487852E+00  4.5254585E+03
 4.5518284E+00  4.6091128E+03
 4.5548720E+00  4.6848145E+03
 4.5579152E+00  4.7098042E+03
 4.5609589E+00  4.8439937E+03
 4.5640020E+00  4.9151318E+03
 4.5670457E+00  5.0267651E+03
 4.5700889E+00  5.1663833E+03
 4.5731320E+00  5.2079121E+03
 4.5761757E+00  5.2685049E+03
 4.5792189E+00  5.2553701E+03
 4.5822625E+00  5.2095635E+03
 4.5853057E+00  5.2068667E+03
 4.5883493E+00  5.1758882E+03
 4.5913925E+00  5.1815947E+03
 4.5944362E+00  5.1147227E+03
 4.5974793E+00  5.0116113E+03
 4.6005225E+00  4.9819390E+03
 4.6035662E+00  4.8783794E+03
 4.6066093E+00  4.8598940E+03
 4.6096530E+00  4.8248794E+03
 4.6126962E+00  4.8264946E+03
 4.6157398E+00  4.8237002E+03
 4.6187830E+00  4.7599287E+03
 4.6218262E+00  4.7896558E+03
 4.6248698E+00  4.7563887E+03
 4.6279130E+00  4.7091948E+03
 4.6309566E+00  4.6877769E+03
 4.6339998E+00  4.6135610E+03
 4.6370435E+00  4.5369272E+03
 4.6400867E+00  4.4691929E+03
 4.6431303E+00  4.4255205E+03
 4.6461735E+00  4.3785845E+03
 4.6492167E+00  4.2893823E+03
 4.6522603E+00  4.2960596E+03
 4.6553035E+00  4.2335249E+03
 4.6583471E+00  4.1359292E+03
 4.6613903E+00  4.1198149E+03
 4.6644340E+00  4.0768582E+03
 4.6674771E+00  4.0907573E+03
 4.6705203E+00  4.0769624E+03
 4.6735640E+00  4.1029536E+03
 4.6766071E+00  4.1053115E+03
 4.6796508E+00  4.0074368E+03
 4.6826940E+00  4.0228962E+03
 4.6857376E+00  4.0060791E+03
 4.6887808E+00  3.9642444E+03
 4.6918244E+00  3.9490535E+03
 4.6948676E+00  3.8905178E+03
 4.6979108E+00  3.9293682E+03
 4.7009544E+00  3.9279971E+03
 4.7039976E+00  3.9035461E+03
 4.7070413E+00  3.9150015E+03
 4.7100844E+00  3.8719050E+03
 4.7131281E+00  3.8723071E+03
 4.7161713E+00  3.8461643E+03
 4.7192144E+00  3.8291704E+03
 4.7222581E+00  3.8578281E+03
 4.7253013E+00  3.8317727E+03
 4.7283449E+00  3.8225044E+03
 4.7313881E+00  3.7686111E+03
 4.7344317E+00  3.7563787E+03
 4.7374749E+00  3.7520669E+03
 4.7405186E+00  3.7030215E+03
 4.7435617E+00  3.7225879E+03
 4.7466049E+00  3.7162185E+03
 4.7496486E+00  3.6541538E+03
 4.7526917E+00  3.6626274E+03
 4.7557354E+00  3.6399065E+03
 4.7587786E+00  3.6303464E+03
 4.7618222E+00  3.6305925E+03
 4.7648654E+00  3.6052390E+03
 4.7679086E+00  3.5811375E+03
 4.7709522E+00  3.5466609E+03
 4.7739954E+00  3.5708809E+03
 4.7770391E+00  3.5650356E+03
 4.7800822E+00  3.5699395E+03
 4.7831259E+00  3.5850098E+03
 4.7861691E+00  3.5436533E+03
 4.7892127E+00  3.5395564E+03
 4.7922559E+00  3.5403584E+03
 4.7952991E+00  3.4976045E+03
 4.7983427E+00  3.4735657E+03
 4.8013859E+00  3.4690593E+03
 4.8044295E+00  3.4426658E+03
 4.8074727E+00  3.4124233E+03
 4.8105164E+00  3.4079502E+03
 4.8135595E+00  3.3754238E+03
 4.8166027E+00  3.3458491E+03
 4.8196464E+00  3.3425515E+03
 4.8226895E+00  3.3212007E+03
 4.8257332E+00  3.2813445E+03
 4.8287764E+00  3.2885269E+03
 4.8318200E+00  3.2898223E+03
 4.8348632E+00  3.2971580E+03
 4.8379068E+00  3.2904568E+03
 4.8409500E+00  3.2481663E+03
 4.8439932E+00  3.2550417E+03
 4.8470368E+00  3.2512507E+03
 4.8500800E+00  3.2639707E+03
 4.8531237E+00  3.2567366E+03
 4.8561668E+00  3.2135869E+03
 4.8592105E+00  3.2119961E+03
 4.8622537E+00  3.2450842E+03
 4.8652968E+00  3.2467583E+03
 4.8683405E+00  3.2420996E+03
 4.8713837E+00  3.2580293E+03
 4.8744273E+00  3.2614177E+03
 4.8774705E+00  3.2298984E+03
 4.8805141E+00  3.2179697E+03
 4.8835573E+00  3.2312261E+03
 4.8866010E+00  3.1730139E+03
 4.8896441E+00  3.1334915E+03
 4.8926873E+00  3.1353643E+03
 4.8957310E+00  3.0948745E+03
 4.8987741E+00  3.0456511E+03
 4.9018178E+00  3.0587659E+03
 4.9048610E+00  3.0741426E+03
 4.9079046E+00  3.0437766E+03
 4.9109478E+00  2.9933425E+03
 4.9139910E+00  2.9736658E+03
 4.9170346E+00  2.9438748E+03
 4.9200778E+00  2.9418779E+03
 4.9231215E+00  2.9665759E+03
 4.9261646E+00  2.9925725E+03
 4.9292083E+00  2.9815776E+03
 4.9322515E+00  2.9330615E+03
 4.9352946E+00  2.9087078E+03
 4.9383383E+00  2.8964707E+03
 4.9413815E+00  2.8553960E+03
 4.9444251E+00  2.8444961E+03
 4.9474683E+00  2.8582163E+03
 4.9505119E+00  2.8580088E+03
 4.9535551E+00  2.8208857E+03
 4.9565988E+00  2.7681316E+03
 4.9596419E+00  2.7606570E+03
 4.9626851E+00  2.7754675E+03
 4.9657288E+00  2.7940925E+03
 4.9687719E+00  2.8203267E+03
 4.9718156E+00  2.8267148E+03
 4.9748588E+00  2.7861621E+03
 4.9779024E+00  2.7648479E+03
 4.9809456E+00  2.7813184E+03
 4.9839888E+00  2.7504426E+03
 4.9870324E+00  2.7264329E+03
 4.9900756E+00  2.7229612E+03
 4.9931192E+00  2.6982004E+03
 4.9961624E+00  2.6731086E+03
 4.9992061E+00  2.6876812E+03
 5.0022492E+00  2.6646904E+03
 5.0052929E+00  2.6552407E+03
 5.0083361E+00  2.6978916E+03
 5.0113792E+00  2.6733074E+03
 5.0144229E+00  2.6476213E+03
 5.0174661E+00  2.6539390E+03
 5.0205097E+00  2.6448940E+03
 5.0235529E+00  2.6122151E+03
 5.0265965E+00  2.6135349E+03
 5.0296397E+00  2.6411362E+03
 5.0326829E+00  2.6578091E+03
 5.0357265E+00  2.6139729E+03
 5.0387697E+00  2.5902385E+03
 5.0418134E+00  2.5922007E+03
 5.0448565E+00  2.6024763E+03
 5.0479002E+00  2.6337722E+03
 5.0509434E+00  2.6271348E+03
 5.0539870E+00  2.6017673E+03
 5.0570302E+00  2.5606853E+03
 5.0600734E+00  2.5334419E+03
 5.0631170E+00  2.5522556E+03
 5.0661602E+00  2.5648828E+03
 5.0692039E+00  2.5849309E+03
 5.0722470E+00  2.6245901E+03
