C:\Users\geste_000\Documents\MatLab Analysis\PSU\(111) Dense\clamped files\352.t
2-Theta Angle (Degrees)
Intensity
       1500
 5.1021564E-01  9.4720258E+02
 5.1325899E-01  9.7598547E+02
 5.1630241E-01  1.0295182E+03
 5.1934576E-01  1.0775111E+03
 5.2238917E-01  1.1102646E+03
 5.2543253E-01  1.0972015E+03
 5.2847594E-01  1.0311169E+03
 5.3151929E-01  9.8265723E+02
 5.3456271E-01  9.1583185E+02
 5.3760606E-01  9.4631653E+02
 5.4064947E-01  9.8299817E+02
 5.4369283E-01  1.0588615E+03
 5.4673624E-01  1.0155955E+03
 5.4977959E-01  9.1299023E+02
 5.5282301E-01  9.1276672E+02
 5.5586636E-01  9.2584650E+02
 5.5890977E-01  9.5668933E+02
 5.6195313E-01  9.3632574E+02
 5.6499654E-01  9.4919171E+02
 5.6803989E-01  1.0473926E+03
 5.7108331E-01  1.0598181E+03
 5.7412666E-01  9.4391571E+02
 5.7717007E-01  9.9893866E+02
 5.8021343E-01  1.0281254E+03
 5.8325684E-01  1.0164577E+03
 5.8630019E-01  1.0542603E+03
 5.8934361E-01  9.7480408E+02
 5.9238696E-01  9.3197394E+02
 5.9543037E-01  9.2278833E+02
 5.9847373E-01  9.6829089E+02
 6.0151714E-01  9.6389368E+02
 6.0456049E-01  1.0352443E+03
 6.0760391E-01  1.0659955E+03
 6.1064726E-01  1.0522805E+03
 6.1369067E-01  1.0277368E+03
 6.1673403E-01  1.0455594E+03
 6.1977744E-01  1.0810708E+03
 6.2282079E-01  1.0522719E+03
 6.2586421E-01  1.0108369E+03
 6.2890756E-01  9.5946045E+02
 6.3195097E-01  9.2439050E+02
 6.3499433E-01  1.0459254E+03
 6.3803774E-01  1.0990859E+03
 6.4108109E-01  1.1197400E+03
 6.4412451E-01  1.0617101E+03
 6.4716786E-01  1.0533431E+03
 6.5021127E-01  1.0883265E+03
 6.5325463E-01  1.0633678E+03
 6.5629804E-01  9.5449707E+02
 6.5934139E-01  9.2308905E+02
 6.6238481E-01  8.9521460E+02
 6.6542816E-01  8.5911334E+02
 6.6847157E-01  9.3591748E+02
 6.7151493E-01  1.0564801E+03
 6.7455834E-01  1.0382679E+03
 6.7760170E-01  1.0326960E+03
 6.8064511E-01  1.0249835E+03
 6.8368846E-01  9.9870715E+02
 6.8673187E-01  1.0129551E+03
 6.8977523E-01  1.0106757E+03
 6.9281864E-01  1.0294520E+03
 6.9586200E-01  1.0060794E+03
 6.9890541E-01  9.9597913E+02
 7.0194876E-01  1.0266644E+03
 7.0499218E-01  1.0273721E+03
 7.0803553E-01  1.0514258E+03
 7.1107894E-01  1.0080977E+03
 7.1412230E-01  9.8274292E+02
 7.1716571E-01  9.3184851E+02
 7.2020906E-01  1.0063931E+03
 7.2325248E-01  1.0769209E+03
 7.2629583E-01  1.0617603E+03
 7.2933924E-01  1.0635533E+03
 7.3238260E-01  1.0500972E+03
 7.3542601E-01  1.0454474E+03
 7.3846936E-01  1.0343893E+03
 7.4151278E-01  9.5141248E+02
 7.4455613E-01  9.0256451E+02
 7.4759954E-01  9.8044580E+02
 7.5064290E-01  1.0089823E+03
 7.5368631E-01  1.0218954E+03
 7.5672966E-01  1.0555566E+03
 7.5977308E-01  1.0574387E+03
 7.6281643E-01  1.0565790E+03
 7.6585984E-01  1.0271191E+03
 7.6890320E-01  9.4008160E+02
 7.7194661E-01  9.9637262E+02
 7.7498996E-01  1.0007098E+03
 7.7803338E-01  9.2996442E+02
 7.8107673E-01  9.9297821E+02
 7.8412014E-01  9.8746759E+02
 7.8716350E-01  1.0540582E+03
 7.9020691E-01  1.1660132E+03
 7.9325026E-01  1.1667463E+03
 7.9629368E-01  1.0924415E+03
 7.9933703E-01  1.0116680E+03
 8.0238044E-01  1.0323311E+03
 8.0542380E-01  1.0345059E+03
 8.0846721E-01  9.6096820E+02
 8.1151056E-01  9.7189880E+02
 8.1455398E-01  1.0200875E+03
 8.1759733E-01  1.0352356E+03
 8.2064074E-01  1.0532338E+03
 8.2368410E-01  9.8572095E+02
 8.2672751E-01  9.8598767E+02
 8.2977086E-01  9.8950507E+02
 8.3281428E-01  1.0451531E+03
 8.3585763E-01  1.0922946E+03
 8.3890104E-01  1.0565587E+03
 8.4194440E-01  1.0493480E+03
 8.4498781E-01  1.0381140E+03
 8.4803116E-01  1.0072572E+03
 8.5107458E-01  9.8923828E+02
 8.5411793E-01  1.0264102E+03
 8.5716134E-01  1.0012211E+03
 8.6020470E-01  1.0023743E+03
 8.6324811E-01  1.0983547E+03
 8.6629146E-01  1.0967693E+03
 8.6933488E-01  1.1242714E+03
 8.7237823E-01  1.1081947E+03
 8.7542164E-01  1.0693531E+03
 8.7846500E-01  1.1475767E+03
 8.8150841E-01  1.1442510E+03
 8.8455176E-01  1.0573650E+03
 8.8759518E-01  1.0179352E+03
 8.9063853E-01  1.0215137E+03
 8.9368194E-01  9.9287653E+02
 8.9672530E-01  1.0008896E+03
 8.9976871E-01  1.1359006E+03
 9.0281206E-01  1.1331366E+03
 9.0585548E-01  1.0879384E+03
 9.0889883E-01  1.0712443E+03
 9.1194224E-01  1.0544867E+03
 9.1498560E-01  1.0932554E+03
 9.1802901E-01  1.1283579E+03
 9.2107236E-01  1.0870820E+03
 9.2411578E-01  1.0548663E+03
 9.2715913E-01  1.1066339E+03
 9.3020254E-01  1.1339463E+03
 9.3324590E-01  1.0694506E+03
 9.3628931E-01  9.5218219E+02
 9.3933266E-01  9.9633032E+02
 9.4237608E-01  1.0571823E+03
 9.4541943E-01  1.0852847E+03
 9.4846284E-01  1.0785438E+03
 9.5150620E-01  1.0705347E+03
 9.5454961E-01  1.1132306E+03
 9.5759296E-01  1.1000564E+03
 9.6063638E-01  1.0804379E+03
 9.6367973E-01  1.0772740E+03
 9.6672314E-01  1.0511619E+03
 9.6976650E-01  1.0683042E+03
 9.7280991E-01  1.0560612E+03
 9.7585326E-01  1.0419490E+03
 9.7889668E-01  1.0557438E+03
 9.8194003E-01  1.1319219E+03
 9.8498344E-01  1.1409528E+03
 9.8802680E-01  1.0590530E+03
 9.9107021E-01  1.0895295E+03
 9.9411356E-01  1.1332010E+03
 9.9715698E-01  1.0961802E+03
 1.0002004E+00  1.0720425E+03
 1.0032437E+00  1.0520906E+03
 1.0062871E+00  1.0568137E+03
 1.0093305E+00  1.0598488E+03
 1.0123739E+00  1.0181638E+03
 1.0154172E+00  1.0380403E+03
 1.0184606E+00  1.0577279E+03
 1.0215040E+00  1.0592832E+03
 1.0245475E+00  1.0936342E+03
 1.0275908E+00  1.1093628E+03
 1.0306342E+00  1.1341261E+03
 1.0336776E+00  1.1341249E+03
 1.0367210E+00  1.0926267E+03
 1.0397643E+00  1.0946101E+03
 1.0428077E+00  1.0355287E+03
 1.0458511E+00  9.6648212E+02
 1.0488945E+00  9.3999158E+02
 1.0519378E+00  1.0072604E+03
 1.0549812E+00  1.0464882E+03
 1.0580246E+00  1.1168770E+03
 1.0610681E+00  1.1073998E+03
 1.0641114E+00  1.1086761E+03
 1.0671548E+00  1.1342535E+03
 1.0701982E+00  1.1399608E+03
 1.0732416E+00  1.1850885E+03
 1.0762849E+00  1.1515652E+03
 1.0793283E+00  1.1250688E+03
 1.0823717E+00  1.1247020E+03
 1.0854151E+00  1.1119353E+03
 1.0884584E+00  1.1514990E+03
 1.0915018E+00  1.1947678E+03
 1.0945452E+00  1.1884006E+03
 1.0975887E+00  1.1217306E+03
 1.1006320E+00  1.1089357E+03
 1.1036754E+00  1.1835905E+03
 1.1067188E+00  1.1475714E+03
 1.1097622E+00  1.1447159E+03
 1.1128055E+00  1.1555813E+03
 1.1158489E+00  1.1126276E+03
 1.1188923E+00  1.0872885E+03
 1.1219357E+00  1.1224493E+03
 1.1249790E+00  1.1703207E+03
 1.1280224E+00  1.1033206E+03
 1.1310658E+00  1.0587708E+03
 1.1341093E+00  1.0962542E+03
 1.1371526E+00  1.0925854E+03
 1.1401960E+00  1.0564149E+03
 1.1432394E+00  1.1104445E+03
 1.1462828E+00  1.1520845E+03
 1.1493261E+00  1.1425482E+03
 1.1523695E+00  1.1513153E+03
 1.1554129E+00  1.1382059E+03
 1.1584562E+00  1.0886661E+03
 1.1614996E+00  1.0531857E+03
 1.1645430E+00  1.0789451E+03
 1.1675864E+00  1.0934557E+03
 1.1706297E+00  1.0703813E+03
 1.1736732E+00  1.1072867E+03
 1.1767166E+00  1.1323025E+03
 1.1797600E+00  1.1289406E+03
 1.1828033E+00  1.1369589E+03
 1.1858467E+00  1.1169174E+03
 1.1888901E+00  1.1394293E+03
 1.1919335E+00  1.1427089E+03
 1.1949768E+00  1.0794604E+03
 1.1980202E+00  1.0599938E+03
 1.2010636E+00  1.0942223E+03
 1.2041070E+00  1.1130850E+03
 1.2071503E+00  1.1143427E+03
 1.2101938E+00  1.1729169E+03
 1.2132372E+00  1.1226685E+03
 1.2162806E+00  1.0966566E+03
 1.2193239E+00  1.1171224E+03
 1.2223673E+00  1.0887913E+03
 1.2254107E+00  1.1913236E+03
 1.2284541E+00  1.2281725E+03
 1.2314974E+00  1.1907694E+03
 1.2345408E+00  1.1782289E+03
 1.2375842E+00  1.1250524E+03
 1.2406276E+00  1.0574260E+03
 1.2436709E+00  1.0785319E+03
 1.2467144E+00  1.0935865E+03
 1.2497578E+00  1.1037495E+03
 1.2528012E+00  1.1584432E+03
 1.2558445E+00  1.1510654E+03
 1.2588879E+00  1.1662288E+03
 1.2619313E+00  1.1669683E+03
 1.2649747E+00  1.1294707E+03
 1.2680180E+00  1.1619872E+03
 1.2710614E+00  1.2234608E+03
 1.2741048E+00  1.2049000E+03
 1.2771482E+00  1.1857999E+03
 1.2801915E+00  1.1886357E+03
 1.2832350E+00  1.2253920E+03
 1.2862784E+00  1.2052610E+03
 1.2893218E+00  1.1867720E+03
 1.2923651E+00  1.1953773E+03
 1.2954085E+00  1.1094242E+03
 1.2984519E+00  1.0821945E+03
 1.3014953E+00  1.1556173E+03
 1.3045386E+00  1.1565048E+03
 1.3075820E+00  1.1644858E+03
 1.3106254E+00  1.2302784E+03
 1.3136688E+00  1.1850168E+03
 1.3167121E+00  1.1563147E+03
 1.3197556E+00  1.2000836E+03
 1.3227990E+00  1.1880667E+03
 1.3258424E+00  1.1673972E+03
 1.3288857E+00  1.1497791E+03
 1.3319291E+00  1.1491370E+03
 1.3349725E+00  1.1590558E+03
 1.3380159E+00  1.1263842E+03
 1.3410592E+00  1.1450477E+03
 1.3441026E+00  1.1560161E+03
 1.3471460E+00  1.1893199E+03
 1.3501894E+00  1.1853751E+03
 1.3532327E+00  1.1709629E+03
 1.3562762E+00  1.1577942E+03
 1.3593196E+00  1.1611165E+03
 1.3623630E+00  1.2432283E+03
 1.3654063E+00  1.2673837E+03
 1.3684497E+00  1.1991410E+03
 1.3714931E+00  1.1538910E+03
 1.3745365E+00  1.1443912E+03
 1.3775798E+00  1.1188428E+03
 1.3806232E+00  1.1161383E+03
 1.3836666E+00  1.1881479E+03
 1.3867100E+00  1.2010596E+03
 1.3897533E+00  1.1297998E+03
 1.3927968E+00  1.1273478E+03
 1.3958402E+00  1.1856864E+03
 1.3988836E+00  1.2409607E+03
 1.4019269E+00  1.2169429E+03
 1.4049703E+00  1.2406522E+03
 1.4080137E+00  1.2158479E+03
 1.4110571E+00  1.2044912E+03
 1.4141004E+00  1.2577177E+03
 1.4171438E+00  1.2160518E+03
 1.4201872E+00  1.1671387E+03
 1.4232306E+00  1.1409709E+03
 1.4262739E+00  1.2059880E+03
 1.4293174E+00  1.3029689E+03
 1.4323608E+00  1.2258779E+03
 1.4354042E+00  1.2121830E+03
 1.4384475E+00  1.2628822E+03
 1.4414909E+00  1.2595088E+03
 1.4445343E+00  1.2418317E+03
 1.4475777E+00  1.2119979E+03
 1.4506210E+00  1.2221525E+03
 1.4536644E+00  1.1929292E+03
 1.4567078E+00  1.1873369E+03
 1.4597512E+00  1.2088796E+03
 1.4627945E+00  1.1805038E+03
 1.4658380E+00  1.2183021E+03
 1.4688814E+00  1.2165471E+03
 1.4719248E+00  1.2242500E+03
 1.4749681E+00  1.2828337E+03
 1.4780115E+00  1.2219626E+03
 1.4810549E+00  1.1461259E+03
 1.4840983E+00  1.1808414E+03
 1.4871416E+00  1.2403406E+03
 1.4901850E+00  1.3218215E+03
 1.4932284E+00  1.3435553E+03
 1.4962718E+00  1.3172621E+03
 1.4993151E+00  1.2080168E+03
 1.5023586E+00  1.1921262E+03
 1.5054020E+00  1.2985433E+03
 1.5084454E+00  1.3476271E+03
 1.5114887E+00  1.3457621E+03
 1.5145321E+00  1.3643402E+03
 1.5175755E+00  1.3658297E+03
 1.5206189E+00  1.3906237E+03
 1.5236622E+00  1.4395082E+03
 1.5267056E+00  1.4574937E+03
 1.5297490E+00  1.4641073E+03
 1.5327924E+00  1.5472854E+03
 1.5358357E+00  1.6526099E+03
 1.5388792E+00  1.6381888E+03
 1.5419226E+00  1.5682567E+03
 1.5449660E+00  1.5553884E+03
 1.5480093E+00  1.5230143E+03
 1.5510527E+00  1.3947212E+03
 1.5540961E+00  1.3105597E+03
 1.5571395E+00  1.2464391E+03
 1.5601828E+00  1.2545123E+03
 1.5632262E+00  1.2401411E+03
 1.5662696E+00  1.2698530E+03
 1.5693130E+00  1.2813137E+03
 1.5723563E+00  1.2377183E+03
 1.5753998E+00  1.2103464E+03
 1.5784432E+00  1.2195392E+03
 1.5814866E+00  1.2457288E+03
 1.5845299E+00  1.2116758E+03
 1.5875733E+00  1.1836040E+03
 1.5906167E+00  1.1695563E+03
 1.5936601E+00  1.1459150E+03
 1.5967034E+00  1.1513390E+03
 1.5997468E+00  1.1489360E+03
 1.6027902E+00  1.1815463E+03
 1.6058336E+00  1.2100925E+03
 1.6088769E+00  1.2416351E+03
 1.6119204E+00  1.2506925E+03
 1.6149638E+00  1.2111484E+03
 1.6180072E+00  1.2103948E+03
 1.6210505E+00  1.2264854E+03
 1.6240939E+00  1.2695662E+03
 1.6271373E+00  1.2319954E+03
 1.6301807E+00  1.1755822E+03
 1.6332240E+00  1.2191777E+03
 1.6362674E+00  1.2175870E+03
 1.6393108E+00  1.1505366E+03
 1.6423542E+00  1.1647773E+03
 1.6453975E+00  1.1870549E+03
 1.6484410E+00  1.1699253E+03
 1.6514844E+00  1.1725394E+03
 1.6545278E+00  1.1711865E+03
 1.6575711E+00  1.2459004E+03
 1.6606145E+00  1.2458644E+03
 1.6636579E+00  1.1764476E+03
 1.6667013E+00  1.2164927E+03
 1.6697446E+00  1.2885114E+03
 1.6727880E+00  1.2776212E+03
 1.6758314E+00  1.2093640E+03
 1.6788749E+00  1.1814847E+03
 1.6819181E+00  1.2172120E+03
 1.6849616E+00  1.1826409E+03
 1.6880050E+00  1.1750059E+03
 1.6910484E+00  1.1731945E+03
 1.6940917E+00  1.1647961E+03
 1.6971351E+00  1.2098442E+03
 1.7001785E+00  1.2752202E+03
 1.7032219E+00  1.2732017E+03
 1.7062652E+00  1.2172384E+03
 1.7093086E+00  1.2098812E+03
 1.7123520E+00  1.2375948E+03
 1.7153955E+00  1.2495709E+03
 1.7184387E+00  1.2176993E+03
 1.7214822E+00  1.2137870E+03
 1.7245256E+00  1.2013680E+03
 1.7275690E+00  1.1394060E+03
 1.7306123E+00  1.1435065E+03
 1.7336557E+00  1.2080181E+03
 1.7366991E+00  1.1958698E+03
 1.7397425E+00  1.1655690E+03
 1.7427858E+00  1.2205573E+03
 1.7458292E+00  1.2715062E+03
 1.7488726E+00  1.2310850E+03
 1.7519161E+00  1.2051207E+03
 1.7549593E+00  1.1991344E+03
 1.7580028E+00  1.2841877E+03
 1.7610462E+00  1.3374596E+03
 1.7640896E+00  1.2879025E+03
 1.7671329E+00  1.2848069E+03
 1.7701763E+00  1.2832260E+03
 1.7732197E+00  1.2691334E+03
 1.7762631E+00  1.2857950E+03
 1.7793064E+00  1.1891688E+03
 1.7823498E+00  1.1909407E+03
 1.7853932E+00  1.2121232E+03
 1.7884367E+00  1.1904546E+03
 1.7914799E+00  1.1954644E+03
 1.7945234E+00  1.1877562E+03
 1.7975668E+00  1.1880491E+03
 1.8006102E+00  1.1912153E+03
 1.8036535E+00  1.2107672E+03
 1.8066969E+00  1.2140488E+03
 1.8097403E+00  1.2283660E+03
 1.8127837E+00  1.2337717E+03
 1.8158270E+00  1.2393624E+03
 1.8188704E+00  1.2718004E+03
 1.8219138E+00  1.2749148E+03
 1.8249573E+00  1.2601351E+03
 1.8280005E+00  1.2803313E+03
 1.8310440E+00  1.2312466E+03
 1.8340874E+00  1.1959120E+03
 1.8371308E+00  1.2198373E+03
 1.8401741E+00  1.2173679E+03
 1.8432175E+00  1.2359730E+03
 1.8462609E+00  1.2491393E+03
 1.8493043E+00  1.2208331E+03
 1.8523476E+00  1.2220201E+03
 1.8553910E+00  1.2446891E+03
 1.8584344E+00  1.2250961E+03
 1.8614779E+00  1.2660433E+03
 1.8645211E+00  1.3254972E+03
 1.8675646E+00  1.2824258E+03
 1.8706080E+00  1.2387457E+03
 1.8736514E+00  1.2393107E+03
 1.8766947E+00  1.2067943E+03
 1.8797381E+00  1.2114106E+03
 1.8827815E+00  1.2434688E+03
 1.8858249E+00  1.2227003E+03
 1.8888682E+00  1.1934803E+03
 1.8919116E+00  1.1914604E+03
 1.8949550E+00  1.2243959E+03
 1.8979985E+00  1.2235256E+03
 1.9010417E+00  1.1907085E+03
 1.9040852E+00  1.2271025E+03
 1.9071286E+00  1.2867053E+03
 1.9101719E+00  1.2753665E+03
 1.9132153E+00  1.2666565E+03
 1.9162587E+00  1.2691552E+03
 1.9193021E+00  1.2753490E+03
 1.9223454E+00  1.3074973E+03
 1.9253888E+00  1.2801071E+03
 1.9284322E+00  1.2728896E+03
 1.9314756E+00  1.3014786E+03
 1.9345189E+00  1.2690198E+03
 1.9375623E+00  1.2148534E+03
 1.9406058E+00  1.2684325E+03
 1.9436492E+00  1.3070681E+03
 1.9466925E+00  1.2417070E+03
 1.9497359E+00  1.2022509E+03
 1.9527793E+00  1.2207498E+03
 1.9558227E+00  1.2680492E+03
 1.9588660E+00  1.3001128E+03
 1.9619094E+00  1.3087157E+03
 1.9649528E+00  1.3049917E+03
 1.9679962E+00  1.2726656E+03
 1.9710395E+00  1.2717393E+03
 1.9740829E+00  1.2672468E+03
 1.9771264E+00  1.2976589E+03
 1.9801698E+00  1.3475581E+03
 1.9832131E+00  1.3389497E+03
 1.9862565E+00  1.3103335E+03
 1.9892999E+00  1.2694481E+03
 1.9923433E+00  1.2708544E+03
 1.9953866E+00  1.3104353E+03
 1.9984300E+00  1.3309520E+03
 2.0014734E+00  1.2942563E+03
 2.0045168E+00  1.2704008E+03
 2.0075603E+00  1.2647991E+03
 2.0106037E+00  1.2826709E+03
 2.0136468E+00  1.3601798E+03
 2.0166903E+00  1.3608063E+03
 2.0197337E+00  1.3334996E+03
 2.0227771E+00  1.3749276E+03
 2.0258205E+00  1.3775358E+03
 2.0288639E+00  1.2419137E+03
 2.0319073E+00  1.2529098E+03
 2.0349507E+00  1.3373588E+03
 2.0379939E+00  1.3786563E+03
 2.0410373E+00  1.3820496E+03
 2.0440807E+00  1.2973381E+03
 2.0471241E+00  1.2830316E+03
 2.0501676E+00  1.2745123E+03
 2.0532110E+00  1.2664407E+03
 2.0562544E+00  1.3119178E+03
 2.0592978E+00  1.3445732E+03
 2.0623410E+00  1.3265781E+03
 2.0653844E+00  1.3452865E+03
 2.0684278E+00  1.3452296E+03
 2.0714712E+00  1.3087333E+03
 2.0745146E+00  1.2650543E+03
 2.0775580E+00  1.2819254E+03
 2.0806015E+00  1.3356464E+03
 2.0836449E+00  1.3228473E+03
 2.0866880E+00  1.3163700E+03
 2.0897315E+00  1.3554065E+03
 2.0927749E+00  1.3853821E+03
 2.0958183E+00  1.4024594E+03
 2.0988617E+00  1.3591558E+03
 2.1019051E+00  1.3560603E+03
 2.1049485E+00  1.3717728E+03
 2.1079919E+00  1.3626123E+03
 2.1110351E+00  1.3987894E+03
 2.1140785E+00  1.4069911E+03
 2.1171219E+00  1.4258131E+03
 2.1201653E+00  1.5220343E+03
 2.1232088E+00  1.5343699E+03
 2.1262522E+00  1.4988459E+03
 2.1292956E+00  1.5339996E+03
 2.1323390E+00  1.5835891E+03
 2.1353822E+00  1.6364904E+03
 2.1384256E+00  1.6973173E+03
 2.1414690E+00  1.7890989E+03
 2.1445124E+00  1.8852582E+03
 2.1475558E+00  2.0204993E+03
 2.1505992E+00  2.0867588E+03
 2.1536427E+00  2.0958452E+03
 2.1566861E+00  2.1528113E+03
 2.1597292E+00  2.2247288E+03
 2.1627727E+00  2.2628767E+03
 2.1658161E+00  2.2210952E+03
 2.1688595E+00  2.1572244E+03
 2.1719029E+00  2.1374617E+03
 2.1749463E+00  2.1085598E+03
 2.1779897E+00  2.0405042E+03
 2.1810331E+00  1.9634539E+03
 2.1840763E+00  1.8827274E+03
 2.1871197E+00  1.7911234E+03
 2.1901631E+00  1.7513829E+03
 2.1932065E+00  1.7114875E+03
 2.1962500E+00  1.6060110E+03
 2.1992934E+00  1.5552157E+03
 2.2023368E+00  1.5202090E+03
 2.2053802E+00  1.4880366E+03
 2.2084234E+00  1.4609639E+03
 2.2114668E+00  1.4355762E+03
 2.2145102E+00  1.4406849E+03
 2.2175536E+00  1.4436949E+03
 2.2205970E+00  1.3872301E+03
 2.2236404E+00  1.3509106E+03
 2.2266839E+00  1.4277915E+03
 2.2297273E+00  1.4226650E+03
 2.2327704E+00  1.3899999E+03
 2.2358139E+00  1.4014653E+03
 2.2388573E+00  1.3828638E+03
 2.2419007E+00  1.4353130E+03
 2.2449441E+00  1.4708253E+03
 2.2479875E+00  1.4138914E+03
 2.2510309E+00  1.3845879E+03
 2.2540743E+00  1.4006047E+03
 2.2571175E+00  1.4088538E+03
 2.2601609E+00  1.3994736E+03
 2.2632043E+00  1.3655549E+03
 2.2662477E+00  1.3505186E+03
 2.2692912E+00  1.3747223E+03
 2.2723346E+00  1.3593983E+03
 2.2753780E+00  1.3639224E+03
 2.2784214E+00  1.3710197E+03
 2.2814646E+00  1.3657544E+03
 2.2845080E+00  1.3896870E+03
 2.2875514E+00  1.3908921E+03
 2.2905948E+00  1.3764521E+03
 2.2936382E+00  1.3318101E+03
 2.2966816E+00  1.3074999E+03
 2.2997251E+00  1.3135624E+03
 2.3027685E+00  1.3733685E+03
 2.3058116E+00  1.4188164E+03
 2.3088551E+00  1.4053944E+03
 2.3118985E+00  1.3599502E+03
 2.3149419E+00  1.3803090E+03
 2.3179853E+00  1.4249836E+03
 2.3210287E+00  1.4020278E+03
 2.3240721E+00  1.4575549E+03
 2.3271155E+00  1.4912615E+03
 2.3301587E+00  1.4425939E+03
 2.3332021E+00  1.3743854E+03
 2.3362455E+00  1.3241666E+03
 2.3392889E+00  1.3642933E+03
 2.3423324E+00  1.4238062E+03
 2.3453758E+00  1.4340132E+03
 2.3484192E+00  1.4586389E+03
 2.3514626E+00  1.4783633E+03
 2.3545058E+00  1.4800479E+03
 2.3575492E+00  1.4955314E+03
 2.3605926E+00  1.5064177E+03
 2.3636360E+00  1.4594199E+03
 2.3666794E+00  1.4334587E+03
 2.3697228E+00  1.4634471E+03
 2.3727663E+00  1.4607081E+03
 2.3758097E+00  1.4476318E+03
 2.3788528E+00  1.4468235E+03
 2.3818963E+00  1.4466470E+03
 2.3849397E+00  1.4912460E+03
 2.3879831E+00  1.5318043E+03
 2.3910265E+00  1.5207241E+03
 2.3940699E+00  1.5192863E+03
 2.3971133E+00  1.5386051E+03
 2.4001567E+00  1.5107334E+03
 2.4031999E+00  1.5098354E+03
 2.4062433E+00  1.5661843E+03
 2.4092867E+00  1.5636345E+03
 2.4123302E+00  1.5065250E+03
 2.4153736E+00  1.4484796E+03
 2.4184170E+00  1.4722480E+03
 2.4214604E+00  1.5076241E+03
 2.4245038E+00  1.4976110E+03
 2.4275470E+00  1.5107545E+03
 2.4305904E+00  1.5505139E+03
 2.4336338E+00  1.5430731E+03
 2.4366772E+00  1.5465000E+03
 2.4397206E+00  1.5604924E+03
 2.4427640E+00  1.5146116E+03
 2.4458075E+00  1.5141437E+03
 2.4488509E+00  1.5596302E+03
 2.4518940E+00  1.5865505E+03
 2.4549375E+00  1.6385876E+03
 2.4579809E+00  1.6347734E+03
 2.4610243E+00  1.5895052E+03
 2.4640677E+00  1.5957350E+03
 2.4671111E+00  1.6031591E+03
 2.4701545E+00  1.6111624E+03
 2.4731979E+00  1.6435159E+03
 2.4762411E+00  1.6941409E+03
 2.4792845E+00  1.6695557E+03
 2.4823279E+00  1.6392288E+03
 2.4853714E+00  1.6354080E+03
 2.4884148E+00  1.6453097E+03
 2.4914582E+00  1.6724188E+03
 2.4945016E+00  1.6273346E+03
 2.4975450E+00  1.6248551E+03
 2.5005882E+00  1.6769412E+03
 2.5036316E+00  1.6971707E+03
 2.5066750E+00  1.7016519E+03
 2.5097184E+00  1.6983213E+03
 2.5127618E+00  1.7423612E+03
 2.5158052E+00  1.7694180E+03
 2.5188487E+00  1.7621061E+03
 2.5218921E+00  1.7860186E+03
 2.5249352E+00  1.8099100E+03
 2.5279787E+00  1.8650443E+03
 2.5310221E+00  1.8974960E+03
 2.5340655E+00  1.8992775E+03
 2.5371089E+00  1.9101947E+03
 2.5401523E+00  1.8858563E+03
 2.5431957E+00  1.9610815E+03
 2.5462391E+00  1.9823364E+03
 2.5492823E+00  1.9569037E+03
 2.5523257E+00  1.9774138E+03
 2.5553691E+00  1.9995474E+03
 2.5584126E+00  2.0406788E+03
 2.5614560E+00  2.0657810E+03
 2.5644994E+00  2.0800623E+03
 2.5675428E+00  2.1498831E+03
 2.5705862E+00  2.1844875E+03
 2.5736294E+00  2.1745322E+03
 2.5766728E+00  2.1931208E+03
 2.5797162E+00  2.2552449E+03
 2.5827596E+00  2.3293674E+03
 2.5858030E+00  2.3731736E+03
 2.5888464E+00  2.4635159E+03
 2.5918899E+00  2.5775667E+03
 2.5949333E+00  2.6646997E+03
 2.5979764E+00  2.7511716E+03
 2.6010199E+00  2.8533149E+03
 2.6040633E+00  2.9190154E+03
 2.6071067E+00  3.0787031E+03
 2.6101501E+00  3.2802241E+03
 2.6131935E+00  3.5665425E+03
 2.6162369E+00  3.8940195E+03
 2.6192803E+00  4.3004116E+03
 2.6223235E+00  4.8785840E+03
 2.6253669E+00  5.6325684E+03
 2.6284103E+00  6.9287036E+03
 2.6314538E+00  8.5211621E+03
 2.6344972E+00  1.1093185E+04
 2.6375406E+00  1.5075908E+04
 2.6405840E+00  2.0177971E+04
 2.6436274E+00  2.7760674E+04
 2.6466706E+00  3.4484637E+04
 2.6497140E+00  4.0615992E+04
 2.6527574E+00  4.2300340E+04
 2.6558008E+00  4.0269609E+04
 2.6588442E+00  3.4157980E+04
 2.6618876E+00  2.7763984E+04
 2.6649311E+00  2.0855824E+04
 2.6679742E+00  1.6215322E+04
 2.6710176E+00  1.2640355E+04
 2.6740611E+00  1.0304187E+04
 2.6771045E+00  9.0405576E+03
 2.6801479E+00  8.2364863E+03
 2.6831913E+00  7.8904829E+03
 2.6862347E+00  7.7775640E+03
 2.6892781E+00  8.0412998E+03
 2.6923213E+00  8.3579238E+03
 2.6953647E+00  8.9145879E+03
 2.6984081E+00  9.7152070E+03
 2.7014515E+00  1.0691915E+04
 2.7044950E+00  1.2526246E+04
 2.7075384E+00  1.4801020E+04
 2.7105818E+00  1.8761469E+04
 2.7136252E+00  2.5782844E+04
 2.7166684E+00  3.7021070E+04
 2.7197118E+00  6.3434227E+04
 2.7227552E+00  1.0298876E+05
 2.7257986E+00  1.7006381E+05
 2.7288420E+00  2.3725261E+05
 2.7318854E+00  2.8029209E+05
 2.7349288E+00  2.6553494E+05
 2.7379723E+00  2.1237586E+05
 2.7410154E+00  1.3406255E+05
 2.7440588E+00  8.4047797E+04
 2.7471023E+00  4.9097793E+04
 2.7501457E+00  3.1206320E+04
 2.7531891E+00  2.2050695E+04
 2.7562325E+00  1.6090575E+04
 2.7592759E+00  1.3193868E+04
 2.7623193E+00  1.0981818E+04
 2.7653625E+00  9.4764102E+03
 2.7684059E+00  8.3767061E+03
 2.7714493E+00  7.3679492E+03
 2.7744927E+00  6.7324761E+03
 2.7775362E+00  6.1278525E+03
 2.7805796E+00  5.6696396E+03
 2.7836230E+00  5.3125107E+03
 2.7866664E+00  4.9067607E+03
 2.7897096E+00  4.6085889E+03
 2.7927530E+00  4.3248618E+03
 2.7957964E+00  4.0964990E+03
 2.7988398E+00  3.9159517E+03
 2.8018832E+00  3.7130007E+03
 2.8049266E+00  3.5139937E+03
 2.8079700E+00  3.3355361E+03
 2.8110135E+00  3.2527712E+03
 2.8140566E+00  3.1508323E+03
 2.8171000E+00  3.0254600E+03
 2.8201435E+00  2.9748621E+03
 2.8231869E+00  2.8973867E+03
 2.8262303E+00  2.7474170E+03
 2.8292737E+00  2.6484294E+03
 2.8323171E+00  2.6134741E+03
 2.8353605E+00  2.5415417E+03
 2.8384037E+00  2.4966147E+03
 2.8414471E+00  2.4717483E+03
 2.8444905E+00  2.4211038E+03
 2.8475339E+00  2.3406653E+03
 2.8505774E+00  2.2970715E+03
 2.8536208E+00  2.2803242E+03
 2.8566642E+00  2.2314365E+03
 2.8597076E+00  2.2061089E+03
 2.8627508E+00  2.1978596E+03
 2.8657942E+00  2.1595933E+03
 2.8688376E+00  2.1210640E+03
 2.8718810E+00  2.1131785E+03
 2.8749244E+00  2.0732949E+03
 2.8779678E+00  1.9896071E+03
 2.8810112E+00  1.9913710E+03
 2.8840547E+00  2.0337394E+03
 2.8870978E+00  2.0304850E+03
 2.8901412E+00  1.9836130E+03
 2.8931847E+00  1.9356107E+03
 2.8962281E+00  1.9375842E+03
 2.8992715E+00  1.9191316E+03
 2.9023149E+00  1.9196307E+03
 2.9053583E+00  1.8927888E+03
 2.9084017E+00  1.8858743E+03
 2.9114449E+00  1.8710237E+03
 2.9144883E+00  1.8655876E+03
 2.9175317E+00  1.8498016E+03
 2.9205751E+00  1.8169651E+03
 2.9236186E+00  1.7851389E+03
 2.9266620E+00  1.7835305E+03
 2.9297054E+00  1.7781851E+03
 2.9327488E+00  1.7766055E+03
 2.9357920E+00  1.7867729E+03
 2.9388354E+00  1.7846519E+03
 2.9418788E+00  1.7609125E+03
 2.9449222E+00  1.7765609E+03
 2.9479656E+00  1.7937997E+03
 2.9510090E+00  1.7870579E+03
 2.9540524E+00  1.7319731E+03
 2.9570959E+00  1.7181875E+03
 2.9601390E+00  1.7749264E+03
 2.9631824E+00  1.7889792E+03
 2.9662259E+00  1.7847823E+03
 2.9692693E+00  1.7821019E+03
 2.9723127E+00  1.7826150E+03
 2.9753561E+00  1.7620641E+03
 2.9783995E+00  1.7451108E+03
 2.9814429E+00  1.7151425E+03
 2.9844861E+00  1.7308866E+03
 2.9875295E+00  1.7745359E+03
 2.9905729E+00  1.7687177E+03
 2.9936163E+00  1.8052701E+03
 2.9966598E+00  1.8285966E+03
 2.9997032E+00  1.7995765E+03
 3.0027466E+00  1.7581233E+03
 3.0057900E+00  1.7373834E+03
 3.0088332E+00  1.7293512E+03
 3.0118766E+00  1.7108308E+03
 3.0149200E+00  1.7750349E+03
 3.0179634E+00  1.7816638E+03
 3.0210068E+00  1.6991687E+03
 3.0240502E+00  1.7029424E+03
 3.0270936E+00  1.7469927E+03
 3.0301371E+00  1.7668318E+03
 3.0331802E+00  1.7928219E+03
 3.0362236E+00  1.7966238E+03
 3.0392671E+00  1.7949690E+03
 3.0423105E+00  1.8026154E+03
 3.0453539E+00  1.8471757E+03
 3.0483973E+00  1.8510785E+03
 3.0514407E+00  1.8340706E+03
 3.0544841E+00  1.8306367E+03
 3.0575273E+00  1.8276459E+03
 3.0605707E+00  1.8665111E+03
 3.0636141E+00  1.9226058E+03
 3.0666575E+00  1.9428419E+03
 3.0697010E+00  1.9117007E+03
 3.0727444E+00  1.9282128E+03
 3.0757878E+00  1.9931969E+03
 3.0788312E+00  2.0263657E+03
 3.0818744E+00  2.0850525E+03
 3.0849178E+00  2.1677258E+03
 3.0879612E+00  2.2336497E+03
 3.0910046E+00  2.2281499E+03
 3.0940480E+00  2.1628965E+03
 3.0970914E+00  2.0243629E+03
 3.1001348E+00  1.8856039E+03
 3.1031783E+00  1.8048278E+03
 3.1062214E+00  1.8214724E+03
 3.1092649E+00  1.8262882E+03
 3.1123083E+00  1.7768948E+03
 3.1153517E+00  1.7528882E+03
 3.1183951E+00  1.7654963E+03
 3.1214385E+00  1.7802062E+03
 3.1244819E+00  1.7630745E+03
 3.1275253E+00  1.7894921E+03
 3.1305685E+00  1.7926211E+03
 3.1336119E+00  1.7636488E+03
 3.1366553E+00  1.8073280E+03
 3.1396987E+00  1.8604645E+03
 3.1427422E+00  1.8980531E+03
 3.1457856E+00  1.9773304E+03
 3.1488290E+00  2.0831094E+03
 3.1518724E+00  2.1125098E+03
 3.1549156E+00  2.1083108E+03
 3.1579590E+00  2.0979172E+03
 3.1610024E+00  2.0261213E+03
 3.1640458E+00  1.9612863E+03
 3.1670892E+00  1.9076293E+03
 3.1701326E+00  1.8635020E+03
 3.1731761E+00  1.7915753E+03
 3.1762195E+00  1.7760974E+03
 3.1792626E+00  1.7565345E+03
 3.1823061E+00  1.7350831E+03
 3.1853495E+00  1.7385660E+03
 3.1883929E+00  1.6941881E+03
 3.1914363E+00  1.7157007E+03
 3.1944797E+00  1.7399185E+03
 3.1975231E+00  1.7110226E+03
 3.2005665E+00  1.6987908E+03
 3.2036097E+00  1.7127582E+03
 3.2066531E+00  1.7263647E+03
 3.2096965E+00  1.7246506E+03
 3.2127399E+00  1.6793965E+03
 3.2157834E+00  1.6716808E+03
 3.2188268E+00  1.7066788E+03
 3.2218702E+00  1.6924420E+03
 3.2249136E+00  1.6663136E+03
 3.2279568E+00  1.6300499E+03
 3.2310002E+00  1.6490659E+03
 3.2340436E+00  1.7278107E+03
 3.2370870E+00  1.7439542E+03
 3.2401304E+00  1.7258035E+03
 3.2431738E+00  1.7201108E+03
 3.2462173E+00  1.7059854E+03
 3.2492607E+00  1.6759983E+03
 3.2523038E+00  1.6654791E+03
 3.2553473E+00  1.6792513E+03
 3.2583907E+00  1.7266110E+03
 3.2614341E+00  1.7474745E+03
 3.2644775E+00  1.7729266E+03
 3.2675209E+00  1.7563600E+03
 3.2705643E+00  1.7331776E+03
 3.2736077E+00  1.7433096E+03
 3.2766509E+00  1.7407407E+03
 3.2796943E+00  1.7056962E+03
 3.2827377E+00  1.6788800E+03
 3.2857811E+00  1.6991936E+03
 3.2888246E+00  1.7295851E+03
 3.2918680E+00  1.7148887E+03
 3.2949114E+00  1.6936632E+03
 3.2979548E+00  1.6722008E+03
 3.3009980E+00  1.6865381E+03
 3.3040414E+00  1.7142335E+03
 3.3070848E+00  1.7020907E+03
 3.3101282E+00  1.7047983E+03
 3.3131716E+00  1.6909197E+03
 3.3162150E+00  1.6740358E+03
 3.3192585E+00  1.6942222E+03
 3.3223019E+00  1.7304768E+03
 3.3253450E+00  1.7593816E+03
 3.3283885E+00  1.7415193E+03
 3.3314319E+00  1.7299515E+03
 3.3344753E+00  1.7154130E+03
 3.3375187E+00  1.7073630E+03
 3.3405621E+00  1.7423539E+03
 3.3436055E+00  1.7691793E+03
 3.3466489E+00  1.7684713E+03
 3.3496921E+00  1.7462765E+03
 3.3527355E+00  1.7508699E+03
 3.3557789E+00  1.7381898E+03
 3.3588223E+00  1.6999153E+03
 3.3618658E+00  1.7201724E+03
 3.3649092E+00  1.7757844E+03
 3.3679526E+00  1.7543541E+03
 3.3709960E+00  1.7517344E+03
 3.3740392E+00  1.7725010E+03
 3.3770826E+00  1.7561727E+03
 3.3801260E+00  1.7489521E+03
 3.3831694E+00  1.7329874E+03
 3.3862128E+00  1.7338408E+03
 3.3892562E+00  1.7587086E+03
 3.3922997E+00  1.7515110E+03
 3.3953428E+00  1.7337034E+03
 3.3983862E+00  1.7367006E+03
 3.4014297E+00  1.7357386E+03
 3.4044731E+00  1.7804484E+03
 3.4075165E+00  1.8268722E+03
 3.4105599E+00  1.8311643E+03
 3.4136033E+00  1.8044246E+03
 3.4166467E+00  1.7741354E+03
 3.4196899E+00  1.7484125E+03
 3.4227333E+00  1.7826545E+03
 3.4257767E+00  1.8529087E+03
 3.4288201E+00  1.8563599E+03
 3.4318635E+00  1.8353821E+03
 3.4349070E+00  1.8133276E+03
 3.4379504E+00  1.7999784E+03
 3.4409938E+00  1.8292952E+03
 3.4440370E+00  1.8517583E+03
 3.4470804E+00  1.8981178E+03
 3.4501238E+00  1.8948591E+03
 3.4531672E+00  1.8494547E+03
 3.4562106E+00  1.8414603E+03
 3.4592540E+00  1.8299729E+03
 3.4622974E+00  1.8137227E+03
 3.4653409E+00  1.8069639E+03
 3.4683840E+00  1.7868291E+03
 3.4714274E+00  1.8271217E+03
 3.4744709E+00  1.8591478E+03
 3.4775143E+00  1.8486600E+03
 3.4805577E+00  1.8102257E+03
 3.4836011E+00  1.7772455E+03
 3.4866445E+00  1.7729465E+03
 3.4896879E+00  1.7652208E+03
 3.4927311E+00  1.7765911E+03
 3.4957745E+00  1.7799863E+03
 3.4988179E+00  1.7590686E+03
 3.5018613E+00  1.7497700E+03
 3.5049047E+00  1.7680616E+03
 3.5079482E+00  1.7987113E+03
 3.5109916E+00  1.7888540E+03
 3.5140350E+00  1.7923826E+03
 3.5170782E+00  1.8334031E+03
 3.5201216E+00  1.8243906E+03
 3.5231650E+00  1.7984944E+03
 3.5262084E+00  1.7756121E+03
 3.5292518E+00  1.7676545E+03
 3.5322952E+00  1.8093052E+03
 3.5353386E+00  1.8012610E+03
 3.5383821E+00  1.7964927E+03
 3.5414252E+00  1.7951898E+03
 3.5444686E+00  1.8199171E+03
 3.5475121E+00  1.8494456E+03
 3.5505555E+00  1.8327471E+03
 3.5535989E+00  1.8467067E+03
 3.5566423E+00  1.8638724E+03
 3.5596857E+00  1.8375630E+03
 3.5627291E+00  1.8074562E+03
 3.5657723E+00  1.8116554E+03
 3.5688157E+00  1.8337721E+03
 3.5718591E+00  1.8477782E+03
 3.5749025E+00  1.8391049E+03
 3.5779459E+00  1.8331317E+03
 3.5809894E+00  1.8370780E+03
 3.5840328E+00  1.8693638E+03
 3.5870762E+00  1.8441604E+03
 3.5901194E+00  1.8047723E+03
 3.5931628E+00  1.8346586E+03
 3.5962062E+00  1.8375161E+03
 3.5992496E+00  1.8270134E+03
 3.6022930E+00  1.8365846E+03
 3.6053364E+00  1.8600577E+03
 3.6083798E+00  1.8694674E+03
 3.6114233E+00  1.8881785E+03
 3.6144664E+00  1.9263878E+03
 3.6175098E+00  1.9244200E+03
 3.6205533E+00  1.9271018E+03
 3.6235967E+00  1.8903400E+03
 3.6266401E+00  1.8678308E+03
 3.6296835E+00  1.9054532E+03
 3.6327269E+00  1.9354740E+03
 3.6357703E+00  1.9448512E+03
 3.6388135E+00  1.9196671E+03
 3.6418569E+00  1.9085499E+03
 3.6449003E+00  1.9495701E+03
 3.6479437E+00  1.9721978E+03
 3.6509871E+00  2.0020260E+03
 3.6540306E+00  2.0124138E+03
 3.6570740E+00  2.0275968E+03
 3.6601174E+00  2.0303586E+03
 3.6631606E+00  2.0302227E+03
 3.6662040E+00  2.0610981E+03
 3.6692474E+00  2.0653420E+03
 3.6722908E+00  2.0960188E+03
 3.6753342E+00  2.1654788E+03
 3.6783776E+00  2.1584727E+03
 3.6814210E+00  2.1839216E+03
 3.6844645E+00  2.2264414E+03
 3.6875076E+00  2.3053113E+03
 3.6905510E+00  2.4163201E+03
 3.6935945E+00  2.5083167E+03
 3.6966379E+00  2.6149426E+03
 3.6996813E+00  2.6842966E+03
 3.7027247E+00  2.7851409E+03
 3.7057681E+00  2.8890664E+03
 3.7088115E+00  2.9755713E+03
 3.7118547E+00  3.0684976E+03
 3.7148981E+00  3.1446248E+03
 3.7179415E+00  3.1995896E+03
 3.7209849E+00  3.2586135E+03
 3.7240283E+00  3.3136797E+03
 3.7270718E+00  3.3766846E+03
 3.7301152E+00  3.4390073E+03
 3.7331586E+00  3.5371497E+03
 3.7362018E+00  3.6561313E+03
 3.7392452E+00  3.7409216E+03
 3.7422886E+00  3.9119097E+03
 3.7453320E+00  4.2657817E+03
 3.7483754E+00  4.6654766E+03
 3.7514188E+00  5.2206216E+03
 3.7544622E+00  5.7839663E+03
 3.7575057E+00  6.4257700E+03
 3.7605488E+00  6.9177168E+03
 3.7635922E+00  7.0644360E+03
 3.7666357E+00  6.9684614E+03
 3.7696791E+00  6.6925850E+03
 3.7727225E+00  6.2380366E+03
 3.7757659E+00  5.5657285E+03
 3.7788093E+00  4.9409634E+03
 3.7818527E+00  4.2959038E+03
 3.7848959E+00  3.8368318E+03
 3.7879393E+00  3.4750471E+03
 3.7909827E+00  3.1455188E+03
 3.7940261E+00  2.9111765E+03
 3.7970695E+00  2.7232898E+03
 3.8001130E+00  2.6016160E+03
 3.8031564E+00  2.4952415E+03
 3.8061998E+00  2.4495278E+03
 3.8092430E+00  2.4256230E+03
 3.8122864E+00  2.3866045E+03
 3.8153298E+00  2.3136511E+03
 3.8183732E+00  2.2691519E+03
 3.8214166E+00  2.2673091E+03
 3.8244600E+00  2.2581736E+03
 3.8275034E+00  2.2372610E+03
 3.8305469E+00  2.2381199E+03
 3.8335900E+00  2.2548967E+03
 3.8366334E+00  2.1790532E+03
 3.8396769E+00  2.1593394E+03
 3.8427203E+00  2.1566084E+03
 3.8457637E+00  2.1178293E+03
 3.8488071E+00  2.1221628E+03
 3.8518505E+00  2.1212476E+03
 3.8548939E+00  2.0936060E+03
 3.8579371E+00  2.0921350E+03
 3.8609805E+00  2.1264707E+03
 3.8640239E+00  2.1574263E+03
 3.8670673E+00  2.1371206E+03
 3.8701108E+00  2.1036655E+03
 3.8731542E+00  2.0907129E+03
 3.8761976E+00  2.1034292E+03
 3.8792410E+00  2.1424988E+03
 3.8822842E+00  2.1349993E+03
 3.8853276E+00  2.1169500E+03
 3.8883710E+00  2.0898091E+03
 3.8914144E+00  2.0811492E+03
 3.8944578E+00  2.1228660E+03
 3.8975012E+00  2.1209563E+03
 3.9005446E+00  2.1263811E+03
 3.9035881E+00  2.1262612E+03
 3.9066312E+00  2.1347500E+03
 3.9096746E+00  2.1105046E+03
 3.9127181E+00  2.0932341E+03
 3.9157615E+00  2.1000300E+03
 3.9188049E+00  2.1088679E+03
 3.9218483E+00  2.1187859E+03
 3.9248917E+00  2.1026335E+03
 3.9279351E+00  2.0914312E+03
 3.9309783E+00  2.1061265E+03
 3.9340217E+00  2.0951355E+03
 3.9370651E+00  2.0821758E+03
 3.9401085E+00  2.1282029E+03
 3.9431520E+00  2.1900979E+03
 3.9461954E+00  2.1822092E+03
 3.9492388E+00  2.1563381E+03
 3.9522822E+00  2.1817241E+03
 3.9553254E+00  2.1904897E+03
 3.9583688E+00  2.1750688E+03
 3.9614122E+00  2.1756555E+03
 3.9644556E+00  2.1851541E+03
 3.9674990E+00  2.2019807E+03
 3.9705424E+00  2.1936885E+03
 3.9735858E+00  2.1906860E+03
 3.9766293E+00  2.2194661E+03
 3.9796724E+00  2.2096589E+03
 3.9827158E+00  2.2137388E+03
 3.9857593E+00  2.2813276E+03
 3.9888027E+00  2.2761028E+03
 3.9918461E+00  2.2314287E+03
 3.9948895E+00  2.2072319E+03
 3.9979329E+00  2.2017371E+03
 4.0009761E+00  2.2312290E+03
 4.0040197E+00  2.2312332E+03
 4.0070629E+00  2.2574041E+03
 4.0101066E+00  2.2971431E+03
 4.0131497E+00  2.2846658E+03
 4.0161929E+00  2.2689624E+03
 4.0192366E+00  2.2860500E+03
 4.0222797E+00  2.3244292E+03
 4.0253234E+00  2.3314172E+03
 4.0283666E+00  2.3311929E+03
 4.0314102E+00  2.3598613E+03
 4.0344534E+00  2.3571917E+03
 4.0374970E+00  2.3986633E+03
 4.0405402E+00  2.3953948E+03
 4.0435834E+00  2.3712170E+03
 4.0466270E+00  2.3773757E+03
 4.0496702E+00  2.3453433E+03
 4.0527139E+00  2.3465825E+03
 4.0557570E+00  2.3914485E+03
 4.0588007E+00  2.4486777E+03
 4.0618439E+00  2.4672056E+03
 4.0648870E+00  2.4464470E+03
 4.0679307E+00  2.4357495E+03
 4.0709739E+00  2.4303069E+03
 4.0740175E+00  2.4557388E+03
 4.0770607E+00  2.5080737E+03
 4.0801044E+00  2.5348984E+03
 4.0831475E+00  2.5346355E+03
 4.0861912E+00  2.5066865E+03
 4.0892344E+00  2.5217434E+03
 4.0922775E+00  2.5728757E+03
 4.0953212E+00  2.5826304E+03
 4.0983644E+00  2.5982219E+03
 4.1014080E+00  2.6009937E+03
 4.1044512E+00  2.5765178E+03
 4.1074948E+00  2.5942205E+03
 4.1105380E+00  2.5882002E+03
 4.1135812E+00  2.5881509E+03
 4.1166248E+00  2.6532004E+03
 4.1196680E+00  2.6565247E+03
 4.1227117E+00  2.6605247E+03
 4.1257548E+00  2.7065242E+03
 4.1287985E+00  2.7430857E+03
 4.1318417E+00  2.7459565E+03
 4.1348853E+00  2.7480454E+03
 4.1379285E+00  2.7967388E+03
 4.1409717E+00  2.8195186E+03
 4.1440153E+00  2.8287646E+03
 4.1470585E+00  2.8545452E+03
 4.1501021E+00  2.8613933E+03
 4.1531453E+00  2.8643689E+03
 4.1561890E+00  2.8397002E+03
 4.1592321E+00  2.8403416E+03
 4.1622753E+00  2.8917117E+03
 4.1653190E+00  2.9223389E+03
 4.1683621E+00  2.9130063E+03
 4.1714058E+00  2.9281680E+03
 4.1744490E+00  2.9748875E+03
 4.1774926E+00  3.0063032E+03
 4.1805358E+00  3.0369578E+03
 4.1835790E+00  3.0674045E+03
 4.1866226E+00  3.0479365E+03
 4.1896658E+00  3.0620022E+03
 4.1927094E+00  3.0754846E+03
 4.1957526E+00  3.0563967E+03
 4.1987963E+00  3.0805845E+03
 4.2018394E+00  3.1362119E+03
 4.2048831E+00  3.1797617E+03
 4.2079263E+00  3.2025950E+03
 4.2109694E+00  3.2079976E+03
 4.2140131E+00  3.2172668E+03
 4.2170563E+00  3.2029636E+03
 4.2200999E+00  3.2011296E+03
 4.2231431E+00  3.2657927E+03
 4.2261868E+00  3.2895884E+03
 4.2292299E+00  3.2834436E+03
 4.2322731E+00  3.3424553E+03
 4.2353168E+00  3.3605210E+03
 4.2383599E+00  3.3215203E+03
 4.2414036E+00  3.3368022E+03
 4.2444468E+00  3.4033430E+03
 4.2474904E+00  3.4527634E+03
 4.2505336E+00  3.4582673E+03
 4.2535772E+00  3.5151533E+03
 4.2566204E+00  3.5336038E+03
 4.2596636E+00  3.5328997E+03
 4.2627072E+00  3.6085698E+03
 4.2657504E+00  3.6111421E+03
 4.2687941E+00  3.5909287E+03
 4.2718372E+00  3.5818428E+03
 4.2748809E+00  3.5949912E+03
 4.2779241E+00  3.6885645E+03
 4.2809672E+00  3.7252485E+03
 4.2840109E+00  3.7459426E+03
 4.2870541E+00  3.7636387E+03
 4.2900977E+00  3.7824502E+03
 4.2931409E+00  3.8255063E+03
 4.2961845E+00  3.8540225E+03
 4.2992277E+00  3.8836609E+03
 4.3022714E+00  3.9064006E+03
 4.3053145E+00  3.9305042E+03
 4.3083577E+00  3.9753992E+03
 4.3114014E+00  3.9706655E+03
 4.3144445E+00  3.9730776E+03
 4.3174882E+00  4.0427681E+03
 4.3205314E+00  4.0547874E+03
 4.3235750E+00  4.0696370E+03
 4.3266182E+00  4.0902473E+03
 4.3296614E+00  4.0614355E+03
 4.3327050E+00  4.0634226E+03
 4.3357482E+00  4.0453796E+03
 4.3387918E+00  4.0458713E+03
 4.3418350E+00  4.0759675E+03
 4.3448787E+00  4.0795647E+03
 4.3479218E+00  4.1130947E+03
 4.3509655E+00  4.1049116E+03
 4.3540087E+00  4.1313105E+03
 4.3570518E+00  4.1501133E+03
 4.3600955E+00  4.1713604E+03
 4.3631387E+00  4.2475859E+03
 4.3661823E+00  4.2332144E+03
 4.3692255E+00  4.2425552E+03
 4.3722692E+00  4.2738057E+03
 4.3753123E+00  4.2665444E+03
 4.3783555E+00  4.3009385E+03
 4.3813992E+00  4.2782012E+03
 4.3844423E+00  4.2900825E+03
 4.3874860E+00  4.3155107E+03
 4.3905292E+00  4.2850273E+03
 4.3935728E+00  4.3156743E+03
 4.3966160E+00  4.2681680E+03
 4.3996596E+00  4.2490864E+03
 4.4027028E+00  4.2718037E+03
 4.4057460E+00  4.2445986E+03
 4.4087896E+00  4.3233936E+03
 4.4118328E+00  4.3316411E+03
 4.4148765E+00  4.2981162E+03
 4.4179196E+00  4.2861479E+03
 4.4209633E+00  4.2956484E+03
 4.4240065E+00  4.3364956E+03
 4.4270496E+00  4.2804927E+03
 4.4300933E+00  4.3281016E+03
 4.4331365E+00  4.3845640E+03
 4.4361801E+00  4.3572490E+03
 4.4392233E+00  4.4167783E+03
 4.4422669E+00  4.4078965E+03
 4.4453101E+00  4.3917969E+03
 4.4483538E+00  4.4262808E+03
 4.4513969E+00  4.4563550E+03
 4.4544401E+00  4.5160781E+03
 4.4574838E+00  4.4993228E+03
 4.4605269E+00  4.5095742E+03
 4.4635706E+00  4.5104907E+03
 4.4666138E+00  4.4899048E+03
 4.4696574E+00  4.5351563E+03
 4.4727006E+00  4.4756606E+03
 4.4757438E+00  4.4154297E+03
 4.4787874E+00  4.4318389E+03
 4.4818306E+00  4.3895620E+03
 4.4848742E+00  4.4069077E+03
 4.4879174E+00  4.3777407E+03
 4.4909611E+00  4.3645439E+03
 4.4940042E+00  4.3510605E+03
 4.4970479E+00  4.3110269E+03
 4.5000911E+00  4.3703496E+03
 4.5031343E+00  4.3650859E+03
 4.5061779E+00  4.3813784E+03
 4.5092211E+00  4.3747344E+03
 4.5122647E+00  4.3170088E+03
 4.5153079E+00  4.3442373E+03
 4.5183516E+00  4.3143535E+03
 4.5213947E+00  4.3256699E+03
 4.5244379E+00  4.3489653E+03
 4.5274816E+00  4.3565884E+03
 4.5305247E+00  4.4139619E+03
 4.5335684E+00  4.3787109E+03
 4.5366116E+00  4.3429941E+03
 4.5396552E+00  4.3851479E+03
 4.5426984E+00  4.4191763E+03
 4.5457420E+00  4.4873105E+03
 4.5487852E+00  4.5560493E+03
 4.5518284E+00  4.6365200E+03
 4.5548720E+00  4.6995776E+03
 4.5579152E+00  4.7414219E+03
 4.5609589E+00  4.8671318E+03
 4.5640020E+00  4.9398843E+03
 4.5670457E+00  5.0238462E+03
 4.5700889E+00  5.0988691E+03
 4.5731320E+00  5.0960420E+03
 4.5761757E+00  5.1599663E+03
 4.5792189E+00  5.1756172E+03
 4.5822625E+00  5.1746792E+03
 4.5853057E+00  5.1464761E+03
 4.5883493E+00  5.0695938E+03
 4.5913925E+00  5.0911714E+03
 4.5944362E+00  5.0242217E+03
 4.5974793E+00  4.9248301E+03
 4.6005225E+00  4.8891035E+03
 4.6035662E+00  4.8445684E+03
 4.6066093E+00  4.8398418E+03
 4.6096530E+00  4.8003867E+03
 4.6126962E+00  4.8164414E+03
 4.6157398E+00  4.8343667E+03
 4.6187830E+00  4.8002100E+03
 4.6218262E+00  4.8000854E+03
 4.6248698E+00  4.7389253E+03
 4.6279130E+00  4.6936484E+03
 4.6309566E+00  4.6392163E+03
 4.6339998E+00  4.5366763E+03
 4.6370435E+00  4.5175122E+03
 4.6400867E+00  4.4378716E+03
 4.6431303E+00  4.3800850E+03
 4.6461735E+00  4.3453823E+03
 4.6492167E+00  4.2383999E+03
 4.6522603E+00  4.2460122E+03
 4.6553035E+00  4.2124277E+03
 4.6583471E+00  4.1198105E+03
 4.6613903E+00  4.0837493E+03
 4.6644340E+00  4.0634441E+03
 4.6674771E+00  4.0821294E+03
 4.6705203E+00  4.0574563E+03
 4.6735640E+00  4.0363291E+03
 4.6766071E+00  4.0086079E+03
 4.6796508E+00  3.9349580E+03
 4.6826940E+00  3.9419746E+03
 4.6857376E+00  3.9382241E+03
 4.6887808E+00  3.9353979E+03
 4.6918244E+00  3.9201450E+03
 4.6948676E+00  3.8927085E+03
 4.6979108E+00  3.9487742E+03
 4.7009544E+00  3.9490164E+03
 4.7039976E+00  3.9000669E+03
 4.7070413E+00  3.8515989E+03
 4.7100844E+00  3.8574578E+03
 4.7131281E+00  3.8897246E+03
 4.7161713E+00  3.8575042E+03
 4.7192144E+00  3.8229214E+03
 4.7222581E+00  3.7991980E+03
 4.7253013E+00  3.7558010E+03
 4.7283449E+00  3.7561753E+03
 4.7313881E+00  3.7198401E+03
 4.7344317E+00  3.7066548E+03
 4.7374749E+00  3.7151177E+03
 4.7405186E+00  3.6897966E+03
 4.7435617E+00  3.7021250E+03
 4.7466049E+00  3.6708975E+03
 4.7496486E+00  3.6726477E+03
 4.7526917E+00  3.6926858E+03
 4.7557354E+00  3.6694546E+03
 4.7587786E+00  3.6501328E+03
 4.7618222E+00  3.6153687E+03
 4.7648654E+00  3.6063096E+03
 4.7679086E+00  3.6068501E+03
 4.7709522E+00  3.5738589E+03
 4.7739954E+00  3.5429587E+03
 4.7770391E+00  3.5219993E+03
 4.7800822E+00  3.5140654E+03
 4.7831259E+00  3.4982539E+03
 4.7861691E+00  3.4639377E+03
 4.7892127E+00  3.4561509E+03
 4.7922559E+00  3.4433503E+03
 4.7952991E+00  3.4299963E+03
 4.7983427E+00  3.4309255E+03
 4.8013859E+00  3.4088545E+03
 4.8044295E+00  3.4166135E+03
 4.8074727E+00  3.3930308E+03
 4.8105164E+00  3.3380667E+03
 4.8135595E+00  3.3507117E+03
 4.8166027E+00  3.3321580E+03
 4.8196464E+00  3.3275745E+03
 4.8226895E+00  3.3292390E+03
 4.8257332E+00  3.3192361E+03
 4.8287764E+00  3.3246440E+03
 4.8318200E+00  3.2877412E+03
 4.8348632E+00  3.2648840E+03
 4.8379068E+00  3.2540510E+03
 4.8409500E+00  3.2449255E+03
 4.8439932E+00  3.2315864E+03
 4.8470368E+00  3.2434070E+03
 4.8500800E+00  3.2798508E+03
 4.8531237E+00  3.2506682E+03
 4.8561668E+00  3.2127205E+03
 4.8592105E+00  3.2345613E+03
 4.8622537E+00  3.2364009E+03
 4.8652968E+00  3.2408157E+03
 4.8683405E+00  3.2380259E+03
 4.8713837E+00  3.2503247E+03
 4.8744273E+00  3.2586150E+03
 4.8774705E+00  3.2168240E+03
 4.8805141E+00  3.2056016E+03
 4.8835573E+00  3.1911179E+03
 4.8866010E+00  3.1649092E+03
 4.8896441E+00  3.1794678E+03
 4.8926873E+00  3.1605154E+03
 4.8957310E+00  3.1470508E+03
 4.8987741E+00  3.1181257E+03
 4.9018178E+00  3.0601956E+03
 4.9048610E+00  3.0231313E+03
 4.9079046E+00  3.0098481E+03
 4.9109478E+00  3.0017017E+03
 4.9139910E+00  2.9767075E+03
 4.9170346E+00  2.9724561E+03
 4.9200778E+00  3.0003540E+03
 4.9231215E+00  3.0066125E+03
 4.9261646E+00  2.9723271E+03
 4.9292083E+00  2.9644990E+03
 4.9322515E+00  2.9368923E+03
 4.9352946E+00  2.8917847E+03
 4.9383383E+00  2.8599702E+03
 4.9413815E+00  2.8484351E+03
 4.9444251E+00  2.8438340E+03
 4.9474683E+00  2.8366162E+03
 4.9505119E+00  2.8453523E+03
 4.9535551E+00  2.8248850E+03
 4.9565988E+00  2.8027627E+03
 4.9596419E+00  2.8085457E+03
 4.9626851E+00  2.7961372E+03
 4.9657288E+00  2.7771516E+03
 4.9687719E+00  2.7538809E+03
 4.9718156E+00  2.7225117E+03
 4.9748588E+00  2.7244080E+03
 4.9779024E+00  2.7358206E+03
 4.9809456E+00  2.7360276E+03
 4.9839888E+00  2.7246118E+03
 4.9870324E+00  2.7152346E+03
 4.9900756E+00  2.7245010E+03
 4.9931192E+00  2.7329189E+03
 4.9961624E+00  2.7350818E+03
 4.9992061E+00  2.7258518E+03
 5.0022492E+00  2.7197856E+03
 5.0052929E+00  2.7172097E+03
 5.0083361E+00  2.7304141E+03
 5.0113792E+00  2.6963281E+03
 5.0144229E+00  2.6731189E+03
 5.0174661E+00  2.7065891E+03
 5.0205097E+00  2.6904170E+03
 5.0235529E+00  2.6848030E+03
 5.0265965E+00  2.6717117E+03
 5.0296397E+00  2.6550764E+03
 5.0326829E+00  2.6375969E+03
 5.0357265E+00  2.6169141E+03
 5.0387697E+00  2.6030552E+03
 5.0418134E+00  2.5983645E+03
 5.0448565E+00  2.6067886E+03
 5.0479002E+00  2.6248145E+03
 5.0509434E+00  2.6002427E+03
 5.0539870E+00  2.5835867E+03
 5.0570302E+00  2.5755735E+03
 5.0600734E+00  2.5485481E+03
 5.0631170E+00  2.5834868E+03
 5.0661602E+00  2.5991060E+03
 5.0692039E+00  2.5860999E+03
 5.0722470E+00  2.6025559E+03
