C:\Users\geste_000\Documents\MatLab Analysis\PSU\(111) Dense\clamped files\353.t
2-Theta Angle (Degrees)
Intensity
       1500
 5.1021564E-01  1.0754443E+03
 5.1325899E-01  1.1277061E+03
 5.1630241E-01  1.0648842E+03
 5.1934576E-01  1.0061063E+03
 5.2238917E-01  1.0240693E+03
 5.2543253E-01  1.0051006E+03
 5.2847594E-01  9.8748981E+02
 5.3151929E-01  9.6014789E+02
 5.3456271E-01  9.7615045E+02
 5.3760606E-01  9.0924902E+02
 5.4064947E-01  8.8553479E+02
 5.4369283E-01  1.0610725E+03
 5.4673624E-01  1.0337411E+03
 5.4977959E-01  8.9172345E+02
 5.5282301E-01  9.8344073E+02
 5.5586636E-01  1.0697236E+03
 5.5890977E-01  9.9557782E+02
 5.6195313E-01  9.8709180E+02
 5.6499654E-01  9.6045160E+02
 5.6803989E-01  9.4893042E+02
 5.7108331E-01  9.9154449E+02
 5.7412666E-01  1.0019280E+03
 5.7717007E-01  1.0091517E+03
 5.8021343E-01  1.0268781E+03
 5.8325684E-01  1.0153168E+03
 5.8630019E-01  9.9008350E+02
 5.8934361E-01  9.5881702E+02
 5.9238696E-01  9.7755420E+02
 5.9543037E-01  1.0406421E+03
 5.9847373E-01  1.1152902E+03
 6.0151714E-01  1.1150837E+03
 6.0456049E-01  9.6808020E+02
 6.0760391E-01  9.8195422E+02
 6.1064726E-01  1.0495984E+03
 6.1369067E-01  9.6966504E+02
 6.1673403E-01  9.5609631E+02
 6.1977744E-01  1.0593845E+03
 6.2282079E-01  1.0563983E+03
 6.2586421E-01  9.8444666E+02
 6.2890756E-01  1.0753221E+03
 6.3195097E-01  1.1626826E+03
 6.3499433E-01  1.0790465E+03
 6.3803774E-01  1.0534265E+03
 6.4108109E-01  1.1088667E+03
 6.4412451E-01  1.0917230E+03
 6.4716786E-01  1.0522957E+03
 6.5021127E-01  1.0666013E+03
 6.5325463E-01  1.0769670E+03
 6.5629804E-01  1.0236323E+03
 6.5934139E-01  1.0322327E+03
 6.6238481E-01  1.0884467E+03
 6.6542816E-01  1.0795330E+03
 6.6847157E-01  1.0618782E+03
 6.7151493E-01  1.0715935E+03
 6.7455834E-01  1.0931918E+03
 6.7760170E-01  1.1226868E+03
 6.8064511E-01  1.0687290E+03
 6.8368846E-01  1.0831476E+03
 6.8673187E-01  1.1520939E+03
 6.8977523E-01  1.1146285E+03
 6.9281864E-01  1.0004929E+03
 6.9586200E-01  9.6456213E+02
 6.9890541E-01  1.0514646E+03
 7.0194876E-01  1.0993870E+03
 7.0499218E-01  1.0462172E+03
 7.0803553E-01  1.0082325E+03
 7.1107894E-01  1.0637001E+03
 7.1412230E-01  1.0535272E+03
 7.1716571E-01  1.0242021E+03
 7.2020906E-01  1.0585785E+03
 7.2325248E-01  1.1091034E+03
 7.2629583E-01  1.0935544E+03
 7.2933924E-01  1.0571542E+03
 7.3238260E-01  1.0306406E+03
 7.3542601E-01  1.0470248E+03
 7.3846936E-01  1.0977933E+03
 7.4151278E-01  1.1062971E+03
 7.4455613E-01  1.0404578E+03
 7.4759954E-01  9.6586444E+02
 7.5064290E-01  9.7846136E+02
 7.5368631E-01  1.0085139E+03
 7.5672966E-01  1.0724128E+03
 7.5977308E-01  1.0564272E+03
 7.6281643E-01  1.0205721E+03
 7.6585984E-01  1.0627803E+03
 7.6890320E-01  1.0786599E+03
 7.7194661E-01  1.0613619E+03
 7.7498996E-01  1.0212767E+03
 7.7803338E-01  1.1053810E+03
 7.8107673E-01  1.1591152E+03
 7.8412014E-01  1.1549049E+03
 7.8716350E-01  1.1105565E+03
 7.9020691E-01  1.0294663E+03
 7.9325026E-01  9.8446838E+02
 7.9629368E-01  1.0349380E+03
 7.9933703E-01  1.0161017E+03
 8.0238044E-01  9.4330371E+02
 8.0542380E-01  9.1790088E+02
 8.0846721E-01  9.3217975E+02
 8.1151056E-01  9.5177155E+02
 8.1455398E-01  9.8621588E+02
 8.1759733E-01  9.6796887E+02
 8.2064074E-01  9.4990796E+02
 8.2368410E-01  1.0646602E+03
 8.2672751E-01  1.1285261E+03
 8.2977086E-01  1.0338593E+03
 8.3281428E-01  9.5575165E+02
 8.3585763E-01  9.1305609E+02
 8.3890104E-01  9.6920996E+02
 8.4194440E-01  1.0328374E+03
 8.4498781E-01  9.8665808E+02
 8.4803116E-01  9.8190106E+02
 8.5107458E-01  1.0063222E+03
 8.5411793E-01  1.0240011E+03
 8.5716134E-01  1.0438555E+03
 8.6020470E-01  1.1149633E+03
 8.6324811E-01  1.0492603E+03
 8.6629146E-01  9.9303888E+02
 8.6933488E-01  1.0148864E+03
 8.7237823E-01  1.0637799E+03
 8.7542164E-01  1.0748035E+03
 8.7846500E-01  1.0512108E+03
 8.8150841E-01  1.0171255E+03
 8.8455176E-01  9.8861951E+02
 8.8759518E-01  1.0279265E+03
 8.9063853E-01  1.0603636E+03
 8.9368194E-01  1.0558823E+03
 8.9672530E-01  1.0765186E+03
 8.9976871E-01  1.1066515E+03
 9.0281206E-01  1.0781290E+03
 9.0585548E-01  1.1570559E+03
 9.0889883E-01  1.1308352E+03
 9.1194224E-01  1.0172692E+03
 9.1498560E-01  9.9294446E+02
 9.1802901E-01  1.0275634E+03
 9.2107236E-01  1.0699688E+03
 9.2411578E-01  1.0124416E+03
 9.2715913E-01  1.0366221E+03
 9.3020254E-01  1.0399078E+03
 9.3324590E-01  1.0164498E+03
 9.3628931E-01  1.0763835E+03
 9.3933266E-01  1.0853873E+03
 9.4237608E-01  1.0799725E+03
 9.4541943E-01  1.0394910E+03
 9.4846284E-01  1.0173273E+03
 9.5150620E-01  1.0246105E+03
 9.5454961E-01  9.8156384E+02
 9.5759296E-01  9.8860944E+02
 9.6063638E-01  1.0500662E+03
 9.6367973E-01  1.0524600E+03
 9.6672314E-01  1.0467737E+03
 9.6976650E-01  1.0968853E+03
 9.7280991E-01  1.1539771E+03
 9.7585326E-01  1.0615469E+03
 9.7889668E-01  1.0681021E+03
 9.8194003E-01  1.1833712E+03
 9.8498344E-01  1.0982234E+03
 9.8802680E-01  9.4582996E+02
 9.9107021E-01  1.0268633E+03
 9.9411356E-01  1.1365957E+03
 9.9715698E-01  1.1242754E+03
 1.0002004E+00  1.0645526E+03
 1.0032437E+00  9.8560016E+02
 1.0062871E+00  9.5645404E+02
 1.0093305E+00  1.0049622E+03
 1.0123739E+00  1.0457611E+03
 1.0154172E+00  1.0719163E+03
 1.0184606E+00  1.1243513E+03
 1.0215040E+00  1.0832023E+03
 1.0245475E+00  1.0311952E+03
 1.0275908E+00  1.1393855E+03
 1.0306342E+00  1.1627695E+03
 1.0336776E+00  1.1188898E+03
 1.0367210E+00  1.2119091E+03
 1.0397643E+00  1.2364692E+03
 1.0428077E+00  1.1435237E+03
 1.0458511E+00  1.1009674E+03
 1.0488945E+00  1.0768929E+03
 1.0519378E+00  1.0898141E+03
 1.0549812E+00  1.0788252E+03
 1.0580246E+00  1.1368362E+03
 1.0610681E+00  1.1525043E+03
 1.0641114E+00  1.0817968E+03
 1.0671548E+00  1.0924802E+03
 1.0701982E+00  1.1077760E+03
 1.0732416E+00  1.1097101E+03
 1.0762849E+00  1.1099160E+03
 1.0793283E+00  1.1102726E+03
 1.0823717E+00  1.1532041E+03
 1.0854151E+00  1.1419739E+03
 1.0884584E+00  1.0939520E+03
 1.0915018E+00  1.0816133E+03
 1.0945452E+00  1.0733582E+03
 1.0975887E+00  1.1431870E+03
 1.1006320E+00  1.1601515E+03
 1.1036754E+00  1.0687152E+03
 1.1067188E+00  1.0637686E+03
 1.1097622E+00  1.0778218E+03
 1.1128055E+00  1.0066418E+03
 1.1158489E+00  1.0381544E+03
 1.1188923E+00  1.1303865E+03
 1.1219357E+00  1.1353467E+03
 1.1249790E+00  1.1767552E+03
 1.1280224E+00  1.1206680E+03
 1.1310658E+00  1.1336707E+03
 1.1341093E+00  1.2064515E+03
 1.1371526E+00  1.1355305E+03
 1.1401960E+00  1.0930127E+03
 1.1432394E+00  1.0922681E+03
 1.1462828E+00  1.0835466E+03
 1.1493261E+00  1.0845553E+03
 1.1523695E+00  1.1290233E+03
 1.1554129E+00  1.1157329E+03
 1.1584562E+00  1.1129225E+03
 1.1614996E+00  1.1300581E+03
 1.1645430E+00  1.0884966E+03
 1.1675864E+00  1.1087727E+03
 1.1706297E+00  1.1549192E+03
 1.1736732E+00  1.1241549E+03
 1.1767166E+00  1.1469994E+03
 1.1797600E+00  1.1539785E+03
 1.1828033E+00  1.1142332E+03
 1.1858467E+00  1.1005435E+03
 1.1888901E+00  1.1203621E+03
 1.1919335E+00  1.0922058E+03
 1.1949768E+00  1.0405385E+03
 1.1980202E+00  1.1071460E+03
 1.2010636E+00  1.1358602E+03
 1.2041070E+00  1.0800118E+03
 1.2071503E+00  1.1089414E+03
 1.2101938E+00  1.1715895E+03
 1.2132372E+00  1.1775906E+03
 1.2162806E+00  1.2093156E+03
 1.2193239E+00  1.1718059E+03
 1.2223673E+00  1.1598566E+03
 1.2254107E+00  1.1985596E+03
 1.2284541E+00  1.1738378E+03
 1.2314974E+00  1.1406453E+03
 1.2345408E+00  1.1570472E+03
 1.2375842E+00  1.1468392E+03
 1.2406276E+00  1.0893373E+03
 1.2436709E+00  1.1146659E+03
 1.2467144E+00  1.1412668E+03
 1.2497578E+00  1.1205457E+03
 1.2528012E+00  1.1156606E+03
 1.2558445E+00  1.1332706E+03
 1.2588879E+00  1.0963696E+03
 1.2619313E+00  1.0639408E+03
 1.2649747E+00  1.0753615E+03
 1.2680180E+00  1.0843905E+03
 1.2710614E+00  1.1346763E+03
 1.2741048E+00  1.1265415E+03
 1.2771482E+00  1.0781150E+03
 1.2801915E+00  1.1291090E+03
 1.2832350E+00  1.1353447E+03
 1.2862784E+00  1.1260190E+03
 1.2893218E+00  1.1611445E+03
 1.2923651E+00  1.1471584E+03
 1.2954085E+00  1.1682458E+03
 1.2984519E+00  1.1682072E+03
 1.3014953E+00  1.1469259E+03
 1.3045386E+00  1.1331040E+03
 1.3075820E+00  1.1222544E+03
 1.3106254E+00  1.1502086E+03
 1.3136688E+00  1.1244281E+03
 1.3167121E+00  1.0953479E+03
 1.3197556E+00  1.1481895E+03
 1.3227990E+00  1.2149288E+03
 1.3258424E+00  1.1869666E+03
 1.3288857E+00  1.1761841E+03
 1.3319291E+00  1.2483351E+03
 1.3349725E+00  1.2138057E+03
 1.3380159E+00  1.1511609E+03
 1.3410592E+00  1.1361157E+03
 1.3441026E+00  1.1402856E+03
 1.3471460E+00  1.1224010E+03
 1.3501894E+00  1.1050452E+03
 1.3532327E+00  1.1502864E+03
 1.3562762E+00  1.1529465E+03
 1.3593196E+00  1.1315048E+03
 1.3623630E+00  1.1212024E+03
 1.3654063E+00  1.1259712E+03
 1.3684497E+00  1.1018704E+03
 1.3714931E+00  1.0808387E+03
 1.3745365E+00  1.1162729E+03
 1.3775798E+00  1.1548511E+03
 1.3806232E+00  1.1853416E+03
 1.3836666E+00  1.1862633E+03
 1.3867100E+00  1.1924856E+03
 1.3897533E+00  1.1629823E+03
 1.3927968E+00  1.0861222E+03
 1.3958402E+00  1.1688823E+03
 1.3988836E+00  1.2082762E+03
 1.4019269E+00  1.1740131E+03
 1.4049703E+00  1.1446514E+03
 1.4080137E+00  1.0970160E+03
 1.4110571E+00  1.0829691E+03
 1.4141004E+00  1.1298276E+03
 1.4171438E+00  1.1744325E+03
 1.4201872E+00  1.1968033E+03
 1.4232306E+00  1.1964419E+03
 1.4262739E+00  1.1869302E+03
 1.4293174E+00  1.1694436E+03
 1.4323608E+00  1.1298521E+03
 1.4354042E+00  1.1550176E+03
 1.4384475E+00  1.1780277E+03
 1.4414909E+00  1.1595753E+03
 1.4445343E+00  1.1479177E+03
 1.4475777E+00  1.1644037E+03
 1.4506210E+00  1.1941747E+03
 1.4536644E+00  1.2275642E+03
 1.4567078E+00  1.2016842E+03
 1.4597512E+00  1.2028318E+03
 1.4627945E+00  1.2071427E+03
 1.4658380E+00  1.1835804E+03
 1.4688814E+00  1.1863680E+03
 1.4719248E+00  1.1864182E+03
 1.4749681E+00  1.2375032E+03
 1.4780115E+00  1.2339833E+03
 1.4810549E+00  1.1901118E+03
 1.4840983E+00  1.2372579E+03
 1.4871416E+00  1.2770804E+03
 1.4901850E+00  1.2632106E+03
 1.4932284E+00  1.2488235E+03
 1.4962718E+00  1.2331295E+03
 1.4993151E+00  1.2456642E+03
 1.5023586E+00  1.2501714E+03
 1.5054020E+00  1.3291344E+03
 1.5084454E+00  1.3926698E+03
 1.5114887E+00  1.3812250E+03
 1.5145321E+00  1.4045548E+03
 1.5175755E+00  1.4172986E+03
 1.5206189E+00  1.4134468E+03
 1.5236622E+00  1.4687164E+03
 1.5267056E+00  1.5135884E+03
 1.5297490E+00  1.5332126E+03
 1.5327924E+00  1.5466306E+03
 1.5358357E+00  1.5996641E+03
 1.5388792E+00  1.6311285E+03
 1.5419226E+00  1.5687611E+03
 1.5449660E+00  1.4740581E+03
 1.5480093E+00  1.4342001E+03
 1.5510527E+00  1.3993937E+03
 1.5540961E+00  1.3502678E+03
 1.5571395E+00  1.3244447E+03
 1.5601828E+00  1.2464883E+03
 1.5632262E+00  1.2254182E+03
 1.5662696E+00  1.2539427E+03
 1.5693130E+00  1.2533279E+03
 1.5723563E+00  1.2612979E+03
 1.5753998E+00  1.2753708E+03
 1.5784432E+00  1.2275328E+03
 1.5814866E+00  1.1285608E+03
 1.5845299E+00  1.1472196E+03
 1.5875733E+00  1.2155707E+03
 1.5906167E+00  1.2191765E+03
 1.5936601E+00  1.2115217E+03
 1.5967034E+00  1.1724413E+03
 1.5997468E+00  1.1340645E+03
 1.6027902E+00  1.1587860E+03
 1.6058336E+00  1.1898354E+03
 1.6088769E+00  1.1990704E+03
 1.6119204E+00  1.1979021E+03
 1.6149638E+00  1.1799037E+03
 1.6180072E+00  1.1397928E+03
 1.6210505E+00  1.2063800E+03
 1.6240939E+00  1.2444578E+03
 1.6271373E+00  1.2440983E+03
 1.6301807E+00  1.2254260E+03
 1.6332240E+00  1.1665016E+03
 1.6362674E+00  1.1960630E+03
 1.6393108E+00  1.2158811E+03
 1.6423542E+00  1.2323517E+03
 1.6453975E+00  1.2369287E+03
 1.6484410E+00  1.2691896E+03
 1.6514844E+00  1.2250952E+03
 1.6545278E+00  1.2042046E+03
 1.6575711E+00  1.1663971E+03
 1.6606145E+00  1.1300237E+03
 1.6636579E+00  1.1985313E+03
 1.6667013E+00  1.2799313E+03
 1.6697446E+00  1.2832186E+03
 1.6727880E+00  1.2317141E+03
 1.6758314E+00  1.1880184E+03
 1.6788749E+00  1.1727928E+03
 1.6819181E+00  1.2105529E+03
 1.6849616E+00  1.2011522E+03
 1.6880050E+00  1.1882162E+03
 1.6910484E+00  1.1829751E+03
 1.6940917E+00  1.1398711E+03
 1.6971351E+00  1.1874766E+03
 1.7001785E+00  1.2088215E+03
 1.7032219E+00  1.1928696E+03
 1.7062652E+00  1.2196073E+03
 1.7093086E+00  1.2183163E+03
 1.7123520E+00  1.1914226E+03
 1.7153955E+00  1.1877980E+03
 1.7184387E+00  1.2199067E+03
 1.7214822E+00  1.2232350E+03
 1.7245256E+00  1.2029811E+03
 1.7275690E+00  1.1988888E+03
 1.7306123E+00  1.2102236E+03
 1.7336557E+00  1.1822401E+03
 1.7366991E+00  1.1527094E+03
 1.7397425E+00  1.1805476E+03
 1.7427858E+00  1.2320852E+03
 1.7458292E+00  1.3015452E+03
 1.7488726E+00  1.3695906E+03
 1.7519161E+00  1.3174817E+03
 1.7549593E+00  1.2532104E+03
 1.7580028E+00  1.2760081E+03
 1.7610462E+00  1.2717052E+03
 1.7640896E+00  1.2572880E+03
 1.7671329E+00  1.2396448E+03
 1.7701763E+00  1.2154031E+03
 1.7732197E+00  1.1801776E+03
 1.7762631E+00  1.1763805E+03
 1.7793064E+00  1.2264243E+03
 1.7823498E+00  1.2374792E+03
 1.7853932E+00  1.2677820E+03
 1.7884367E+00  1.2328745E+03
 1.7914799E+00  1.2677402E+03
 1.7945234E+00  1.2614185E+03
 1.7975668E+00  1.2418871E+03
 1.8006102E+00  1.2165784E+03
 1.8036535E+00  1.2057780E+03
 1.8066969E+00  1.2508905E+03
 1.8097403E+00  1.2953467E+03
 1.8127837E+00  1.2832689E+03
 1.8158270E+00  1.2340750E+03
 1.8188704E+00  1.2041228E+03
 1.8219138E+00  1.1629012E+03
 1.8249573E+00  1.1981917E+03
 1.8280005E+00  1.2402435E+03
 1.8310440E+00  1.3045908E+03
 1.8340874E+00  1.3145349E+03
 1.8371308E+00  1.2268687E+03
 1.8401741E+00  1.2192886E+03
 1.8432175E+00  1.2675676E+03
 1.8462609E+00  1.2378936E+03
 1.8493043E+00  1.2640294E+03
 1.8523476E+00  1.3427202E+03
 1.8553910E+00  1.2841637E+03
 1.8584344E+00  1.2337909E+03
 1.8614779E+00  1.2727570E+03
 1.8645211E+00  1.3179071E+03
 1.8675646E+00  1.2999893E+03
 1.8706080E+00  1.2884044E+03
 1.8736514E+00  1.3046755E+03
 1.8766947E+00  1.3094712E+03
 1.8797381E+00  1.3054177E+03
 1.8827815E+00  1.2554890E+03
 1.8858249E+00  1.2011511E+03
 1.8888682E+00  1.2094065E+03
 1.8919116E+00  1.3519764E+03
 1.8949550E+00  1.4016731E+03
 1.8979985E+00  1.3457104E+03
 1.9010417E+00  1.3130861E+03
 1.9040852E+00  1.2997705E+03
 1.9071286E+00  1.2124298E+03
 1.9101719E+00  1.1831705E+03
 1.9132153E+00  1.2012908E+03
 1.9162587E+00  1.2593856E+03
 1.9193021E+00  1.2745476E+03
 1.9223454E+00  1.2773781E+03
 1.9253888E+00  1.2387837E+03
 1.9284322E+00  1.2258043E+03
 1.9314756E+00  1.2380073E+03
 1.9345189E+00  1.2153158E+03
 1.9375623E+00  1.1959755E+03
 1.9406058E+00  1.1826747E+03
 1.9436492E+00  1.2037511E+03
 1.9466925E+00  1.2791855E+03
 1.9497359E+00  1.2892224E+03
 1.9527793E+00  1.2951606E+03
 1.9558227E+00  1.2892625E+03
 1.9588660E+00  1.2733713E+03
 1.9619094E+00  1.2707065E+03
 1.9649528E+00  1.3056453E+03
 1.9679962E+00  1.3423685E+03
 1.9710395E+00  1.3016466E+03
 1.9740829E+00  1.2155061E+03
 1.9771264E+00  1.2092905E+03
 1.9801698E+00  1.2514395E+03
 1.9832131E+00  1.2871570E+03
 1.9862565E+00  1.2816360E+03
 1.9892999E+00  1.2648204E+03
 1.9923433E+00  1.2191368E+03
 1.9953866E+00  1.2232129E+03
 1.9984300E+00  1.2466771E+03
 2.0014734E+00  1.2655706E+03
 2.0045168E+00  1.3160206E+03
 2.0075603E+00  1.3066394E+03
 2.0106037E+00  1.3133241E+03
 2.0136468E+00  1.3233660E+03
 2.0166903E+00  1.3151580E+03
 2.0197337E+00  1.3230608E+03
 2.0227771E+00  1.3509972E+03
 2.0258205E+00  1.3699827E+03
 2.0288639E+00  1.3174170E+03
 2.0319073E+00  1.2861145E+03
 2.0349507E+00  1.3131937E+03
 2.0379939E+00  1.3196404E+03
 2.0410373E+00  1.2996744E+03
 2.0440807E+00  1.2765953E+03
 2.0471241E+00  1.2672394E+03
 2.0501676E+00  1.2924186E+03
 2.0532110E+00  1.3071107E+03
 2.0562544E+00  1.2778629E+03
 2.0592978E+00  1.2991993E+03
 2.0623410E+00  1.3064342E+03
 2.0653844E+00  1.3002795E+03
 2.0684278E+00  1.3142417E+03
 2.0714712E+00  1.2865208E+03
 2.0745146E+00  1.3137778E+03
 2.0775580E+00  1.3221216E+03
 2.0806015E+00  1.2947172E+03
 2.0836449E+00  1.3050002E+03
 2.0866880E+00  1.2886986E+03
 2.0897315E+00  1.3201178E+03
 2.0927749E+00  1.3372939E+03
 2.0958183E+00  1.3495250E+03
 2.0988617E+00  1.3400293E+03
 2.1019051E+00  1.3180167E+03
 2.1049485E+00  1.3198020E+03
 2.1079919E+00  1.3435210E+03
 2.1110351E+00  1.3841292E+03
 2.1140785E+00  1.4012913E+03
 2.1171219E+00  1.4051843E+03
 2.1201653E+00  1.3731567E+03
 2.1232088E+00  1.3642231E+03
 2.1262522E+00  1.3917378E+03
 2.1292956E+00  1.4581014E+03
 2.1323390E+00  1.5396792E+03
 2.1353822E+00  1.6115699E+03
 2.1384256E+00  1.6443102E+03
 2.1414690E+00  1.6988896E+03
 2.1445124E+00  1.8189941E+03
 2.1475558E+00  1.9435513E+03
 2.1505992E+00  2.0805161E+03
 2.1536427E+00  2.1701467E+03
 2.1566861E+00  2.1858328E+03
 2.1597292E+00  2.1404546E+03
 2.1627727E+00  2.1487480E+03
 2.1658161E+00  2.1617095E+03
 2.1688595E+00  2.1563044E+03
 2.1719029E+00  2.1802009E+03
 2.1749463E+00  2.1164050E+03
 2.1779897E+00  2.0431609E+03
 2.1810331E+00  2.0218400E+03
 2.1840763E+00  1.9611154E+03
 2.1871197E+00  1.8244951E+03
 2.1901631E+00  1.7251805E+03
 2.1932065E+00  1.6975248E+03
 2.1962500E+00  1.6303965E+03
 2.1992934E+00  1.5514941E+03
 2.2023368E+00  1.5198147E+03
 2.2053802E+00  1.4667935E+03
 2.2084234E+00  1.3964862E+03
 2.2114668E+00  1.3650295E+03
 2.2145102E+00  1.3693258E+03
 2.2175536E+00  1.3816636E+03
 2.2205970E+00  1.3866039E+03
 2.2236404E+00  1.4193671E+03
 2.2266839E+00  1.4314589E+03
 2.2297273E+00  1.3932146E+03
 2.2327704E+00  1.3437228E+03
 2.2358139E+00  1.3219749E+03
 2.2388573E+00  1.3230961E+03
 2.2419007E+00  1.3674563E+03
 2.2449441E+00  1.4205828E+03
 2.2479875E+00  1.4388455E+03
 2.2510309E+00  1.3996313E+03
 2.2540743E+00  1.3353817E+03
 2.2571175E+00  1.3437251E+03
 2.2601609E+00  1.3708778E+03
 2.2632043E+00  1.3716039E+03
 2.2662477E+00  1.3543250E+03
 2.2692912E+00  1.3698262E+03
 2.2723346E+00  1.3409407E+03
 2.2753780E+00  1.3357595E+03
 2.2784214E+00  1.3638646E+03
 2.2814646E+00  1.3571412E+03
 2.2845080E+00  1.3788550E+03
 2.2875514E+00  1.4058779E+03
 2.2905948E+00  1.4199896E+03
 2.2936382E+00  1.4340605E+03
 2.2966816E+00  1.4481205E+03
 2.2997251E+00  1.4330167E+03
 2.3027685E+00  1.4095042E+03
 2.3058116E+00  1.4071270E+03
 2.3088551E+00  1.3973455E+03
 2.3118985E+00  1.4016250E+03
 2.3149419E+00  1.4201711E+03
 2.3179853E+00  1.4183485E+03
 2.3210287E+00  1.4060426E+03
 2.3240721E+00  1.4354951E+03
 2.3271155E+00  1.4518114E+03
 2.3301587E+00  1.4493462E+03
 2.3332021E+00  1.3838309E+03
 2.3362455E+00  1.3179984E+03
 2.3392889E+00  1.3259148E+03
 2.3423324E+00  1.3842065E+03
 2.3453758E+00  1.4303535E+03
 2.3484192E+00  1.4367277E+03
 2.3514626E+00  1.4119120E+03
 2.3545058E+00  1.4013992E+03
 2.3575492E+00  1.3703109E+03
 2.3605926E+00  1.3404861E+03
 2.3636360E+00  1.3941677E+03
 2.3666794E+00  1.4193163E+03
 2.3697228E+00  1.4248641E+03
 2.3727663E+00  1.4329353E+03
 2.3758097E+00  1.4024348E+03
 2.3788528E+00  1.4401344E+03
 2.3818963E+00  1.5074562E+03
 2.3849397E+00  1.5021049E+03
 2.3879831E+00  1.4938672E+03
 2.3910265E+00  1.5013665E+03
 2.3940699E+00  1.4893322E+03
 2.3971133E+00  1.4861470E+03
 2.4001567E+00  1.5017806E+03
 2.4031999E+00  1.5145697E+03
 2.4062433E+00  1.5338218E+03
 2.4092867E+00  1.5327477E+03
 2.4123302E+00  1.5092555E+03
 2.4153736E+00  1.4876510E+03
 2.4184170E+00  1.5087963E+03
 2.4214604E+00  1.5184602E+03
 2.4245038E+00  1.5241572E+03
 2.4275470E+00  1.5470457E+03
 2.4305904E+00  1.5351901E+03
 2.4336338E+00  1.5606946E+03
 2.4366772E+00  1.6014648E+03
 2.4397206E+00  1.5515448E+03
 2.4427640E+00  1.5261580E+03
 2.4458075E+00  1.5243263E+03
 2.4488509E+00  1.5717588E+03
 2.4518940E+00  1.5945889E+03
 2.4549375E+00  1.5538264E+03
 2.4579809E+00  1.5548248E+03
 2.4610243E+00  1.5862482E+03
 2.4640677E+00  1.5820653E+03
 2.4671111E+00  1.5799268E+03
 2.4701545E+00  1.5431134E+03
 2.4731979E+00  1.5490897E+03
 2.4762411E+00  1.6033596E+03
 2.4792845E+00  1.5689370E+03
 2.4823279E+00  1.5351045E+03
 2.4853714E+00  1.5752399E+03
 2.4884148E+00  1.5944865E+03
 2.4914582E+00  1.5749926E+03
 2.4945016E+00  1.5925713E+03
 2.4975450E+00  1.6722625E+03
 2.5005882E+00  1.7015228E+03
 2.5036316E+00  1.6965785E+03
 2.5066750E+00  1.7171489E+03
 2.5097184E+00  1.7604099E+03
 2.5127618E+00  1.7479628E+03
 2.5158052E+00  1.7459358E+03
 2.5188487E+00  1.7373420E+03
 2.5218921E+00  1.7661416E+03
 2.5249352E+00  1.8146165E+03
 2.5279787E+00  1.8141321E+03
 2.5310221E+00  1.8406642E+03
 2.5340655E+00  1.8664716E+03
 2.5371089E+00  1.8455011E+03
 2.5401523E+00  1.8880017E+03
 2.5431957E+00  1.9194629E+03
 2.5462391E+00  1.8901033E+03
 2.5492823E+00  1.8817548E+03
 2.5523257E+00  1.9412040E+03
 2.5553691E+00  2.0000588E+03
 2.5584126E+00  2.0573027E+03
 2.5614560E+00  2.1137676E+03
 2.5644994E+00  2.1315457E+03
 2.5675428E+00  2.1186738E+03
 2.5705862E+00  2.1455437E+03
 2.5736294E+00  2.2120200E+03
 2.5766728E+00  2.2347478E+03
 2.5797162E+00  2.3003164E+03
 2.5827596E+00  2.3713223E+03
 2.5858030E+00  2.3677483E+03
 2.5888464E+00  2.4595310E+03
 2.5918899E+00  2.5324988E+03
 2.5949333E+00  2.5919646E+03
 2.5979764E+00  2.7185476E+03
 2.6010199E+00  2.8035757E+03
 2.6040633E+00  2.9776226E+03
 2.6071067E+00  3.1459609E+03
 2.6101501E+00  3.3382942E+03
 2.6131935E+00  3.5882732E+03
 2.6162369E+00  3.8457083E+03
 2.6192803E+00  4.3207329E+03
 2.6223235E+00  4.8944170E+03
 2.6253669E+00  5.6476445E+03
 2.6284103E+00  6.9612607E+03
 2.6314538E+00  8.5744561E+03
 2.6344972E+00  1.1184734E+04
 2.6375406E+00  1.5172451E+04
 2.6405840E+00  2.0351025E+04
 2.6436274E+00  2.7905428E+04
 2.6466706E+00  3.4564953E+04
 2.6497140E+00  4.0666520E+04
 2.6527574E+00  4.2196738E+04
 2.6558008E+00  4.0082336E+04
 2.6588442E+00  3.3901543E+04
 2.6618876E+00  2.7472160E+04
 2.6649311E+00  2.0582436E+04
 2.6679742E+00  1.5929091E+04
 2.6710176E+00  1.2440316E+04
 2.6740611E+00  1.0249103E+04
 2.6771045E+00  9.0397324E+03
 2.6801479E+00  8.2461133E+03
 2.6831913E+00  7.9661958E+03
 2.6862347E+00  7.8967568E+03
 2.6892781E+00  8.0677129E+03
 2.6923213E+00  8.3363682E+03
 2.6953647E+00  8.8729980E+03
 2.6984081E+00  9.6975078E+03
 2.7014515E+00  1.0693626E+04
 2.7044950E+00  1.2456660E+04
 2.7075384E+00  1.4702910E+04
 2.7105818E+00  1.8682027E+04
 2.7136252E+00  2.5678570E+04
 2.7166684E+00  3.6850496E+04
 2.7197118E+00  6.3209953E+04
 2.7227552E+00  1.0292934E+05
 2.7257986E+00  1.7028209E+05
 2.7288420E+00  2.3740281E+05
 2.7318854E+00  2.8036209E+05
 2.7349288E+00  2.6515675E+05
 2.7379723E+00  2.1175969E+05
 2.7410154E+00  1.3346498E+05
 2.7440588E+00  8.3613648E+04
 2.7471023E+00  4.8862719E+04
 2.7501457E+00  3.1037596E+04
 2.7531891E+00  2.1964703E+04
 2.7562325E+00  1.6204075E+04
 2.7592759E+00  1.3256746E+04
 2.7623193E+00  1.0969829E+04
 2.7653625E+00  9.4197002E+03
 2.7684059E+00  8.3567236E+03
 2.7714493E+00  7.4402915E+03
 2.7744927E+00  6.8078208E+03
 2.7775362E+00  6.2392065E+03
 2.7805796E+00  5.7471724E+03
 2.7836230E+00  5.2645874E+03
 2.7866664E+00  4.8630942E+03
 2.7897096E+00  4.6062505E+03
 2.7927530E+00  4.2907896E+03
 2.7957964E+00  4.0338345E+03
 2.7988398E+00  3.8476292E+03
 2.8018832E+00  3.6595776E+03
 2.8049266E+00  3.5309529E+03
 2.8079700E+00  3.3784097E+03
 2.8110135E+00  3.2386328E+03
 2.8140566E+00  3.1458809E+03
 2.8171000E+00  3.0249290E+03
 2.8201435E+00  2.9167986E+03
 2.8231869E+00  2.8401221E+03
 2.8262303E+00  2.7701340E+03
 2.8292737E+00  2.6733413E+03
 2.8323171E+00  2.5640979E+03
 2.8353605E+00  2.4925168E+03
 2.8384037E+00  2.4547188E+03
 2.8414471E+00  2.3834182E+03
 2.8444905E+00  2.3595256E+03
 2.8475339E+00  2.3469001E+03
 2.8505774E+00  2.3000906E+03
 2.8536208E+00  2.2889885E+03
 2.8566642E+00  2.2077119E+03
 2.8597076E+00  2.1272664E+03
 2.8627508E+00  2.1282905E+03
 2.8657942E+00  2.1208826E+03
 2.8688376E+00  2.1038748E+03
 2.8718810E+00  2.0740713E+03
 2.8749244E+00  2.0601819E+03
 2.8779678E+00  2.0648362E+03
 2.8810112E+00  2.0270702E+03
 2.8840547E+00  1.9773293E+03
 2.8870978E+00  1.9888795E+03
 2.8901412E+00  1.9781079E+03
 2.8931847E+00  1.9307151E+03
 2.8962281E+00  1.9339685E+03
 2.8992715E+00  1.8989265E+03
 2.9023149E+00  1.8617843E+03
 2.9053583E+00  1.8545323E+03
 2.9084017E+00  1.8123435E+03
 2.9114449E+00  1.8131232E+03
 2.9144883E+00  1.8564645E+03
 2.9175317E+00  1.8240236E+03
 2.9205751E+00  1.8203945E+03
 2.9236186E+00  1.8547645E+03
 2.9266620E+00  1.8489928E+03
 2.9297054E+00  1.8188503E+03
 2.9327488E+00  1.8213284E+03
 2.9357920E+00  1.8322944E+03
 2.9388354E+00  1.8225138E+03
 2.9418788E+00  1.7817892E+03
 2.9449222E+00  1.7178848E+03
 2.9479656E+00  1.7063848E+03
 2.9510090E+00  1.7307543E+03
 2.9540524E+00  1.8073788E+03
 2.9570959E+00  1.8371555E+03
 2.9601390E+00  1.7960210E+03
 2.9631824E+00  1.7329320E+03
 2.9662259E+00  1.7469008E+03
 2.9692693E+00  1.7734823E+03
 2.9723127E+00  1.7905999E+03
 2.9753561E+00  1.8118195E+03
 2.9783995E+00  1.7883148E+03
 2.9814429E+00  1.7922246E+03
 2.9844861E+00  1.8150073E+03
 2.9875295E+00  1.8048312E+03
 2.9905729E+00  1.7978252E+03
 2.9936163E+00  1.7737106E+03
 2.9966598E+00  1.7663998E+03
 2.9997032E+00  1.7570864E+03
 3.0027466E+00  1.7470830E+03
 3.0057900E+00  1.7464233E+03
 3.0088332E+00  1.7689678E+03
 3.0118766E+00  1.7758569E+03
 3.0149200E+00  1.7950953E+03
 3.0179634E+00  1.7812590E+03
 3.0210068E+00  1.7879059E+03
 3.0240502E+00  1.8168362E+03
 3.0270936E+00  1.7891523E+03
 3.0301371E+00  1.7195116E+03
 3.0331802E+00  1.7285665E+03
 3.0362236E+00  1.7767758E+03
 3.0392671E+00  1.7975044E+03
 3.0423105E+00  1.8427650E+03
 3.0453539E+00  1.8496650E+03
 3.0483973E+00  1.8416749E+03
 3.0514407E+00  1.8185065E+03
 3.0544841E+00  1.8009482E+03
 3.0575273E+00  1.8135278E+03
 3.0605707E+00  1.8440647E+03
 3.0636141E+00  1.8718115E+03
 3.0666575E+00  1.9227006E+03
 3.0697010E+00  1.9312965E+03
 3.0727444E+00  1.9040699E+03
 3.0757878E+00  1.9772192E+03
 3.0788312E+00  2.0644016E+03
 3.0818744E+00  2.1202375E+03
 3.0849178E+00  2.1592180E+03
 3.0879612E+00  2.1832007E+03
 3.0910046E+00  2.1022156E+03
 3.0940480E+00  2.0204255E+03
 3.0970914E+00  1.9454756E+03
 3.1001348E+00  1.8742484E+03
 3.1031783E+00  1.8352511E+03
 3.1062214E+00  1.8408585E+03
 3.1092649E+00  1.8391025E+03
 3.1123083E+00  1.7713562E+03
 3.1153517E+00  1.7292147E+03
 3.1183951E+00  1.7031210E+03
 3.1214385E+00  1.6949672E+03
 3.1244819E+00  1.7221624E+03
 3.1275253E+00  1.7540500E+03
 3.1305685E+00  1.7659720E+03
 3.1336119E+00  1.7554435E+03
 3.1366553E+00  1.8134032E+03
 3.1396987E+00  1.8521462E+03
 3.1427422E+00  1.8697896E+03
 3.1457856E+00  1.9720967E+03
 3.1488290E+00  2.0428518E+03
 3.1518724E+00  2.0898430E+03
 3.1549156E+00  2.1061125E+03
 3.1579590E+00  2.0975256E+03
 3.1610024E+00  2.0748477E+03
 3.1640458E+00  1.9959320E+03
 3.1670892E+00  1.9267571E+03
 3.1701326E+00  1.8802870E+03
 3.1731761E+00  1.8316418E+03
 3.1762195E+00  1.7892998E+03
 3.1792626E+00  1.7354510E+03
 3.1823061E+00  1.7040146E+03
 3.1853495E+00  1.7105447E+03
 3.1883929E+00  1.7215918E+03
 3.1914363E+00  1.7019054E+03
 3.1944797E+00  1.6650825E+03
 3.1975231E+00  1.6612679E+03
 3.2005665E+00  1.6742941E+03
 3.2036097E+00  1.6550360E+03
 3.2066531E+00  1.6975247E+03
 3.2096965E+00  1.7492777E+03
 3.2127399E+00  1.7278335E+03
 3.2157834E+00  1.7034160E+03
 3.2188268E+00  1.6783717E+03
 3.2218702E+00  1.6534645E+03
 3.2249136E+00  1.6439666E+03
 3.2279568E+00  1.7199070E+03
 3.2310002E+00  1.7487008E+03
 3.2340436E+00  1.7305038E+03
 3.2370870E+00  1.7014188E+03
 3.2401304E+00  1.6809640E+03
 3.2431738E+00  1.7036492E+03
 3.2462173E+00  1.7213604E+03
 3.2492607E+00  1.7405941E+03
 3.2523038E+00  1.7197874E+03
 3.2553473E+00  1.6932061E+03
 3.2583907E+00  1.7022507E+03
 3.2614341E+00  1.7169697E+03
 3.2644775E+00  1.6930482E+03
 3.2675209E+00  1.6911503E+03
 3.2705643E+00  1.7047180E+03
 3.2736077E+00  1.7099878E+03
 3.2766509E+00  1.6906130E+03
 3.2796943E+00  1.6771311E+03
 3.2827377E+00  1.6704692E+03
 3.2857811E+00  1.6857350E+03
 3.2888246E+00  1.7298820E+03
 3.2918680E+00  1.7517269E+03
 3.2949114E+00  1.7474552E+03
 3.2979548E+00  1.7183416E+03
 3.3009980E+00  1.7020419E+03
 3.3040414E+00  1.6994451E+03
 3.3070848E+00  1.6738606E+03
 3.3101282E+00  1.6754841E+03
 3.3131716E+00  1.6928800E+03
 3.3162150E+00  1.6761082E+03
 3.3192585E+00  1.6565740E+03
 3.3223019E+00  1.6678115E+03
 3.3253450E+00  1.7127334E+03
 3.3283885E+00  1.7397170E+03
 3.3314319E+00  1.7461388E+03
 3.3344753E+00  1.7417393E+03
 3.3375187E+00  1.7742008E+03
 3.3405621E+00  1.7622657E+03
 3.3436055E+00  1.7414661E+03
 3.3466489E+00  1.7371187E+03
 3.3496921E+00  1.7455067E+03
 3.3527355E+00  1.7641650E+03
 3.3557789E+00  1.7690886E+03
 3.3588223E+00  1.7535104E+03
 3.3618658E+00  1.7208411E+03
 3.3649092E+00  1.6820635E+03
 3.3679526E+00  1.6849999E+03
 3.3709960E+00  1.7117782E+03
 3.3740392E+00  1.7147019E+03
 3.3770826E+00  1.7314139E+03
 3.3801260E+00  1.7458701E+03
 3.3831694E+00  1.7619437E+03
 3.3862128E+00  1.7501833E+03
 3.3892562E+00  1.7578655E+03
 3.3922997E+00  1.7714349E+03
 3.3953428E+00  1.7277296E+03
 3.3983862E+00  1.7460656E+03
 3.4014297E+00  1.7805292E+03
 3.4044731E+00  1.7777434E+03
 3.4075165E+00  1.7771158E+03
 3.4105599E+00  1.7587784E+03
 3.4136033E+00  1.7424236E+03
 3.4166467E+00  1.7452466E+03
 3.4196899E+00  1.7829236E+03
 3.4227333E+00  1.8187527E+03
 3.4257767E+00  1.8356433E+03
 3.4288201E+00  1.8179530E+03
 3.4318635E+00  1.8356335E+03
 3.4349070E+00  1.8365897E+03
 3.4379504E+00  1.8375452E+03
 3.4409938E+00  1.8144823E+03
 3.4440370E+00  1.8126095E+03
 3.4470804E+00  1.7906970E+03
 3.4501238E+00  1.7680541E+03
 3.4531672E+00  1.8021956E+03
 3.4562106E+00  1.8260709E+03
 3.4592540E+00  1.8213524E+03
 3.4622974E+00  1.7948020E+03
 3.4653409E+00  1.7691873E+03
 3.4683840E+00  1.7515768E+03
 3.4714274E+00  1.8136442E+03
 3.4744709E+00  1.8381199E+03
 3.4775143E+00  1.7711018E+03
 3.4805577E+00  1.7881678E+03
 3.4836011E+00  1.8193857E+03
 3.4866445E+00  1.7902413E+03
 3.4896879E+00  1.7901671E+03
 3.4927311E+00  1.8137405E+03
 3.4957745E+00  1.8021841E+03
 3.4988179E+00  1.7680298E+03
 3.5018613E+00  1.7863033E+03
 3.5049047E+00  1.8130470E+03
 3.5079482E+00  1.7637051E+03
 3.5109916E+00  1.7433151E+03
 3.5140350E+00  1.7640890E+03
 3.5170782E+00  1.7691951E+03
 3.5201216E+00  1.7556914E+03
 3.5231650E+00  1.7671252E+03
 3.5262084E+00  1.8005654E+03
 3.5292518E+00  1.7991492E+03
 3.5322952E+00  1.8285507E+03
 3.5353386E+00  1.8409813E+03
 3.5383821E+00  1.8059495E+03
 3.5414252E+00  1.7995144E+03
 3.5444686E+00  1.8141077E+03
 3.5475121E+00  1.7964658E+03
 3.5505555E+00  1.7749132E+03
 3.5535989E+00  1.7537789E+03
 3.5566423E+00  1.7782561E+03
 3.5596857E+00  1.8011089E+03
 3.5627291E+00  1.8190179E+03
 3.5657723E+00  1.8305056E+03
 3.5688157E+00  1.8021799E+03
 3.5718591E+00  1.7909552E+03
 3.5749025E+00  1.7818481E+03
 3.5779459E+00  1.8113403E+03
 3.5809894E+00  1.8623109E+03
 3.5840328E+00  1.8728182E+03
 3.5870762E+00  1.8630306E+03
 3.5901194E+00  1.8624253E+03
 3.5931628E+00  1.8619945E+03
 3.5962062E+00  1.8830780E+03
 3.5992496E+00  1.8514600E+03
 3.6022930E+00  1.8251782E+03
 3.6053364E+00  1.8544897E+03
 3.6083798E+00  1.8437882E+03
 3.6114233E+00  1.8407979E+03
 3.6144664E+00  1.8726061E+03
 3.6175098E+00  1.8622087E+03
 3.6205533E+00  1.8646962E+03
 3.6235967E+00  1.8754026E+03
 3.6266401E+00  1.8819010E+03
 3.6296835E+00  1.9105641E+03
 3.6327269E+00  1.8929443E+03
 3.6357703E+00  1.8956809E+03
 3.6388135E+00  1.9641693E+03
 3.6418569E+00  1.9739050E+03
 3.6449003E+00  1.9690951E+03
 3.6479437E+00  1.9848800E+03
 3.6509871E+00  1.9959589E+03
 3.6540306E+00  2.0204514E+03
 3.6570740E+00  2.0093361E+03
 3.6601174E+00  1.9815282E+03
 3.6631606E+00  2.0191074E+03
 3.6662040E+00  2.0616040E+03
 3.6692474E+00  2.0556252E+03
 3.6722908E+00  2.0713037E+03
 3.6753342E+00  2.1102861E+03
 3.6783776E+00  2.1382778E+03
 3.6814210E+00  2.1988140E+03
 3.6844645E+00  2.2877542E+03
 3.6875076E+00  2.3390847E+03
 3.6905510E+00  2.3719939E+03
 3.6935945E+00  2.4506023E+03
 3.6966379E+00  2.5653811E+03
 3.6996813E+00  2.6882815E+03
 3.7027247E+00  2.8487610E+03
 3.7057681E+00  2.9583262E+03
 3.7088115E+00  2.9941067E+03
 3.7118547E+00  3.0992236E+03
 3.7148981E+00  3.1643752E+03
 3.7179415E+00  3.2385244E+03
 3.7209849E+00  3.3114656E+03
 3.7240283E+00  3.3479841E+03
 3.7270718E+00  3.4009316E+03
 3.7301152E+00  3.4180830E+03
 3.7331586E+00  3.4629480E+03
 3.7362018E+00  3.5704492E+03
 3.7392452E+00  3.7048760E+03
 3.7422886E+00  3.8983394E+03
 3.7453320E+00  4.2086265E+03
 3.7483754E+00  4.5931274E+03
 3.7514188E+00  5.1051157E+03
 3.7544622E+00  5.6418403E+03
 3.7575057E+00  6.2660283E+03
 3.7605488E+00  6.7325078E+03
 3.7635922E+00  6.8975083E+03
 3.7666357E+00  6.9113677E+03
 3.7696791E+00  6.7003535E+03
 3.7727225E+00  6.2260552E+03
 3.7757659E+00  5.5621724E+03
 3.7788093E+00  4.9392637E+03
 3.7818527E+00  4.2802539E+03
 3.7848959E+00  3.7941409E+03
 3.7879393E+00  3.4209644E+03
 3.7909827E+00  3.0971550E+03
 3.7940261E+00  2.8599307E+03
 3.7970695E+00  2.6868542E+03
 3.8001130E+00  2.5891455E+03
 3.8031564E+00  2.5161055E+03
 3.8061998E+00  2.4257441E+03
 3.8092430E+00  2.3649011E+03
 3.8122864E+00  2.3430813E+03
 3.8153298E+00  2.3185327E+03
 3.8183732E+00  2.2508127E+03
 3.8214166E+00  2.2185723E+03
 3.8244600E+00  2.2274548E+03
 3.8275034E+00  2.2468855E+03
 3.8305469E+00  2.2164978E+03
 3.8335900E+00  2.1847310E+03
 3.8366334E+00  2.2017559E+03
 3.8396769E+00  2.1997029E+03
 3.8427203E+00  2.1838921E+03
 3.8457637E+00  2.2007205E+03
 3.8488071E+00  2.1599863E+03
 3.8518505E+00  2.1388752E+03
 3.8548939E+00  2.1357786E+03
 3.8579371E+00  2.1169851E+03
 3.8609805E+00  2.1016660E+03
 3.8640239E+00  2.1023157E+03
 3.8670673E+00  2.0819993E+03
 3.8701108E+00  2.0445660E+03
 3.8731542E+00  2.0193457E+03
 3.8761976E+00  2.0543594E+03
 3.8792410E+00  2.0656545E+03
 3.8822842E+00  2.0791353E+03
 3.8853276E+00  2.0741658E+03
 3.8883710E+00  2.0416813E+03
 3.8914144E+00  2.0778931E+03
 3.8944578E+00  2.1056726E+03
 3.8975012E+00  2.0851755E+03
 3.9005446E+00  2.0717981E+03
 3.9035881E+00  2.1038335E+03
 3.9066312E+00  2.1181865E+03
 3.9096746E+00  2.1052754E+03
 3.9127181E+00  2.0879338E+03
 3.9157615E+00  2.0983774E+03
 3.9188049E+00  2.0831965E+03
 3.9218483E+00  2.0774131E+03
 3.9248917E+00  2.1052505E+03
 3.9279351E+00  2.0971392E+03
 3.9309783E+00  2.1099163E+03
 3.9340217E+00  2.1234678E+03
 3.9370651E+00  2.1107261E+03
 3.9401085E+00  2.0961272E+03
 3.9431520E+00  2.0885381E+03
 3.9461954E+00  2.1150063E+03
 3.9492388E+00  2.1303596E+03
 3.9522822E+00  2.1502153E+03
 3.9553254E+00  2.1735461E+03
 3.9583688E+00  2.1879150E+03
 3.9614122E+00  2.1965708E+03
 3.9644556E+00  2.2146934E+03
 3.9674990E+00  2.2185544E+03
 3.9705424E+00  2.1952522E+03
 3.9735858E+00  2.1792537E+03
 3.9766293E+00  2.1721726E+03
 3.9796724E+00  2.2044297E+03
 3.9827158E+00  2.2159163E+03
 3.9857593E+00  2.2135942E+03
 3.9888027E+00  2.2425229E+03
 3.9918461E+00  2.2414993E+03
 3.9948895E+00  2.2225144E+03
 3.9979329E+00  2.2458889E+03
 4.0009761E+00  2.2447004E+03
 4.0040197E+00  2.2382571E+03
 4.0070629E+00  2.2885459E+03
 4.0101066E+00  2.3115156E+03
 4.0131497E+00  2.3092007E+03
 4.0161929E+00  2.3033076E+03
 4.0192366E+00  2.3030972E+03
 4.0222797E+00  2.3054397E+03
 4.0253234E+00  2.2966021E+03
 4.0283666E+00  2.2938967E+03
 4.0314102E+00  2.3121531E+03
 4.0344534E+00  2.3110588E+03
 4.0374970E+00  2.3444382E+03
 4.0405402E+00  2.3521382E+03
 4.0435834E+00  2.3504175E+03
 4.0466270E+00  2.3797810E+03
 4.0496702E+00  2.3910093E+03
 4.0527139E+00  2.4091611E+03
 4.0557570E+00  2.3908367E+03
 4.0588007E+00  2.3797664E+03
 4.0618439E+00  2.4158125E+03
 4.0648870E+00  2.4144641E+03
 4.0679307E+00  2.4087427E+03
 4.0709739E+00  2.4186670E+03
 4.0740175E+00  2.4420923E+03
 4.0770607E+00  2.4770239E+03
 4.0801044E+00  2.4736011E+03
 4.0831475E+00  2.5002251E+03
 4.0861912E+00  2.5587551E+03
 4.0892344E+00  2.5497256E+03
 4.0922775E+00  2.5395093E+03
 4.0953212E+00  2.5671235E+03
 4.0983644E+00  2.6015918E+03
 4.1014080E+00  2.5928083E+03
 4.1044512E+00  2.5955908E+03
 4.1074948E+00  2.5945022E+03
 4.1105380E+00  2.6200596E+03
 4.1135812E+00  2.6533311E+03
 4.1166248E+00  2.6394258E+03
 4.1196680E+00  2.6074509E+03
 4.1227117E+00  2.6197476E+03
 4.1257548E+00  2.6665518E+03
 4.1287985E+00  2.6916138E+03
 4.1318417E+00  2.7197988E+03
 4.1348853E+00  2.7063484E+03
 4.1379285E+00  2.7170288E+03
 4.1409717E+00  2.7527102E+03
 4.1440153E+00  2.7632551E+03
 4.1470585E+00  2.8011404E+03
 4.1501021E+00  2.8273552E+03
 4.1531453E+00  2.8539705E+03
 4.1561890E+00  2.8257097E+03
 4.1592321E+00  2.8232910E+03
 4.1622753E+00  2.9008093E+03
 4.1653190E+00  2.9476768E+03
 4.1683621E+00  2.9155708E+03
 4.1714058E+00  2.9249902E+03
 4.1744490E+00  2.9557827E+03
 4.1774926E+00  2.9684570E+03
 4.1805358E+00  2.9861055E+03
 4.1835790E+00  3.0088125E+03
 4.1866226E+00  3.0024666E+03
 4.1896658E+00  2.9823918E+03
 4.1927094E+00  3.0198411E+03
 4.1957526E+00  3.0687039E+03
 4.1987963E+00  3.0773113E+03
 4.2018394E+00  3.1050417E+03
 4.2048831E+00  3.1310281E+03
 4.2079263E+00  3.1605535E+03
 4.2109694E+00  3.1925234E+03
 4.2140131E+00  3.2367109E+03
 4.2170563E+00  3.2688901E+03
 4.2200999E+00  3.2775793E+03
 4.2231431E+00  3.2892163E+03
 4.2261868E+00  3.2917854E+03
 4.2292299E+00  3.2897930E+03
 4.2322731E+00  3.2943296E+03
 4.2353168E+00  3.3220000E+03
 4.2383599E+00  3.3635012E+03
 4.2414036E+00  3.3685662E+03
 4.2444468E+00  3.3636985E+03
 4.2474904E+00  3.4024641E+03
 4.2505336E+00  3.4361948E+03
 4.2535772E+00  3.4588755E+03
 4.2566204E+00  3.4836494E+03
 4.2596636E+00  3.4924788E+03
 4.2627072E+00  3.5248792E+03
 4.2657504E+00  3.5151484E+03
 4.2687941E+00  3.5381370E+03
 4.2718372E+00  3.5933250E+03
 4.2748809E+00  3.6332266E+03
 4.2779241E+00  3.6684082E+03
 4.2809672E+00  3.7038186E+03
 4.2840109E+00  3.7313198E+03
 4.2870541E+00  3.7465315E+03
 4.2900977E+00  3.7530859E+03
 4.2931409E+00  3.8077744E+03
 4.2961845E+00  3.8562734E+03
 4.2992277E+00  3.8657244E+03
 4.3022714E+00  3.8649675E+03
 4.3053145E+00  3.8502444E+03
 4.3083577E+00  3.8747859E+03
 4.3114014E+00  3.9337783E+03
 4.3144445E+00  3.9584727E+03
 4.3174882E+00  3.9858669E+03
 4.3205314E+00  3.9597932E+03
 4.3235750E+00  3.9975271E+03
 4.3266182E+00  4.0017405E+03
 4.3296614E+00  4.0078186E+03
 4.3327050E+00  4.0640203E+03
 4.3357482E+00  4.0647930E+03
 4.3387918E+00  4.0700769E+03
 4.3418350E+00  4.0830508E+03
 4.3448787E+00  4.1174131E+03
 4.3479218E+00  4.1238374E+03
 4.3509655E+00  4.0740708E+03
 4.3540087E+00  4.1435151E+03
 4.3570518E+00  4.1771606E+03
 4.3600955E+00  4.1566709E+03
 4.3631387E+00  4.2186069E+03
 4.3661823E+00  4.2140547E+03
 4.3692255E+00  4.2496836E+03
 4.3722692E+00  4.2475996E+03
 4.3753123E+00  4.2432480E+03
 4.3783555E+00  4.2779312E+03
 4.3813992E+00  4.2603828E+03
 4.3844423E+00  4.2607603E+03
 4.3874860E+00  4.2353096E+03
 4.3905292E+00  4.2101230E+03
 4.3935728E+00  4.2624614E+03
 4.3966160E+00  4.2524932E+03
 4.3996596E+00  4.3049395E+03
 4.4027028E+00  4.3136431E+03
 4.4057460E+00  4.2804194E+03
 4.4087896E+00  4.3389292E+03
 4.4118328E+00  4.3302861E+03
 4.4148765E+00  4.3341724E+03
 4.4179196E+00  4.3258638E+03
 4.4209633E+00  4.2800249E+03
 4.4240065E+00  4.3172310E+03
 4.4270496E+00  4.3145337E+03
 4.4300933E+00  4.3388462E+03
 4.4331365E+00  4.3548726E+03
 4.4361801E+00  4.3405479E+03
 4.4392233E+00  4.3881470E+03
 4.4422669E+00  4.3584619E+03
 4.4453101E+00  4.3942349E+03
 4.4483538E+00  4.4136763E+03
 4.4513969E+00  4.3886973E+03
 4.4544401E+00  4.4714404E+03
 4.4574838E+00  4.4752856E+03
 4.4605269E+00  4.4831431E+03
 4.4635706E+00  4.5041646E+03
 4.4666138E+00  4.4813232E+03
 4.4696574E+00  4.4931694E+03
 4.4727006E+00  4.4276724E+03
 4.4757438E+00  4.4087886E+03
 4.4787874E+00  4.4099580E+03
 4.4818306E+00  4.3693628E+03
 4.4848742E+00  4.4016426E+03
 4.4879174E+00  4.3227676E+03
 4.4909611E+00  4.3080010E+03
 4.4940042E+00  4.3279673E+03
 4.4970479E+00  4.2638174E+03
 4.5000911E+00  4.3136187E+03
 4.5031343E+00  4.3244668E+03
 4.5061779E+00  4.3315498E+03
 4.5092211E+00  4.3377627E+03
 4.5122647E+00  4.3188350E+03
 4.5153079E+00  4.3530835E+03
 4.5183516E+00  4.3417490E+03
 4.5213947E+00  4.3346392E+03
 4.5244379E+00  4.3409727E+03
 4.5274816E+00  4.3213291E+03
 4.5305247E+00  4.4248882E+03
 4.5335684E+00  4.4369541E+03
 4.5366116E+00  4.4216143E+03
 4.5396552E+00  4.4461333E+03
 4.5426984E+00  4.4616079E+03
 4.5457420E+00  4.5066851E+03
 4.5487852E+00  4.5241094E+03
 4.5518284E+00  4.5758999E+03
 4.5548720E+00  4.6371797E+03
 4.5579152E+00  4.7182803E+03
 4.5609589E+00  4.8304360E+03
 4.5640020E+00  4.8906797E+03
 4.5670457E+00  5.0125259E+03
 4.5700889E+00  5.0996074E+03
 4.5731320E+00  5.1365547E+03
 4.5761757E+00  5.2364702E+03
 4.5792189E+00  5.2236299E+03
 4.5822625E+00  5.2009185E+03
 4.5853057E+00  5.2217510E+03
 4.5883493E+00  5.1821133E+03
 4.5913925E+00  5.1569087E+03
 4.5944362E+00  5.0577900E+03
 4.5974793E+00  4.9534194E+03
 4.6005225E+00  4.9405850E+03
 4.6035662E+00  4.8874077E+03
 4.6066093E+00  4.8594736E+03
 4.6096530E+00  4.8081572E+03
 4.6126962E+00  4.7871250E+03
 4.6157398E+00  4.7912021E+03
 4.6187830E+00  4.7611118E+03
 4.6218262E+00  4.7739033E+03
 4.6248698E+00  4.7265962E+03
 4.6279130E+00  4.6554507E+03
 4.6309566E+00  4.6356958E+03
 4.6339998E+00  4.6144478E+03
 4.6370435E+00  4.5833735E+03
 4.6400867E+00  4.4585947E+03
 4.6431303E+00  4.4135898E+03
 4.6461735E+00  4.3868862E+03
 4.6492167E+00  4.2410332E+03
 4.6522603E+00  4.2256650E+03
 4.6553035E+00  4.2032803E+03
 4.6583471E+00  4.1086406E+03
 4.6613903E+00  4.1129570E+03
 4.6644340E+00  4.0914004E+03
 4.6674771E+00  4.0850896E+03
 4.6705203E+00  4.0132175E+03
 4.6735640E+00  3.9748857E+03
 4.6766071E+00  4.0022642E+03
 4.6796508E+00  3.9385581E+03
 4.6826940E+00  3.9686489E+03
 4.6857376E+00  3.9797026E+03
 4.6887808E+00  3.9680029E+03
 4.6918244E+00  3.9283887E+03
 4.6948676E+00  3.8462903E+03
 4.6979108E+00  3.8529514E+03
 4.7009544E+00  3.8479150E+03
 4.7039976E+00  3.8620442E+03
 4.7070413E+00  3.8926621E+03
 4.7100844E+00  3.8430457E+03
 4.7131281E+00  3.8808875E+03
 4.7161713E+00  3.8711389E+03
 4.7192144E+00  3.8150325E+03
 4.7222581E+00  3.8057083E+03
 4.7253013E+00  3.7756406E+03
 4.7283449E+00  3.8029302E+03
 4.7313881E+00  3.7524783E+03
 4.7344317E+00  3.7186396E+03
 4.7374749E+00  3.7305327E+03
 4.7405186E+00  3.6931658E+03
 4.7435617E+00  3.7027205E+03
 4.7466049E+00  3.6852974E+03
 4.7496486E+00  3.6605107E+03
 4.7526917E+00  3.6676213E+03
 4.7557354E+00  3.6003887E+03
 4.7587786E+00  3.5786904E+03
 4.7618222E+00  3.5751301E+03
 4.7648654E+00  3.5677041E+03
 4.7679086E+00  3.5708782E+03
 4.7709522E+00  3.5366948E+03
 4.7739954E+00  3.5066436E+03
 4.7770391E+00  3.4999490E+03
 4.7800822E+00  3.4582188E+03
 4.7831259E+00  3.4652207E+03
 4.7861691E+00  3.4725464E+03
 4.7892127E+00  3.4571665E+03
 4.7922559E+00  3.4448240E+03
 4.7952991E+00  3.4480554E+03
 4.7983427E+00  3.4149985E+03
 4.8013859E+00  3.3652512E+03
 4.8044295E+00  3.3767761E+03
 4.8074727E+00  3.3734717E+03
 4.8105164E+00  3.3573860E+03
 4.8135595E+00  3.3359446E+03
 4.8166027E+00  3.3164839E+03
 4.8196464E+00  3.3394512E+03
 4.8226895E+00  3.3332310E+03
 4.8257332E+00  3.3233906E+03
 4.8287764E+00  3.3121011E+03
 4.8318200E+00  3.3154268E+03
 4.8348632E+00  3.2992551E+03
 4.8379068E+00  3.2633281E+03
 4.8409500E+00  3.2341497E+03
 4.8439932E+00  3.2097544E+03
 4.8470368E+00  3.1871843E+03
 4.8500800E+00  3.1854131E+03
 4.8531237E+00  3.1901687E+03
 4.8561668E+00  3.1803362E+03
 4.8592105E+00  3.2027383E+03
 4.8622537E+00  3.2118660E+03
 4.8652968E+00  3.2086492E+03
 4.8683405E+00  3.2001079E+03
 4.8713837E+00  3.1672810E+03
 4.8744273E+00  3.1732039E+03
 4.8774705E+00  3.2246338E+03
 4.8805141E+00  3.2558860E+03
 4.8835573E+00  3.2318420E+03
 4.8866010E+00  3.1939570E+03
 4.8896441E+00  3.1671323E+03
 4.8926873E+00  3.1383647E+03
 4.8957310E+00  3.1156729E+03
 4.8987741E+00  3.0862246E+03
 4.9018178E+00  3.0373108E+03
 4.9048610E+00  3.0392141E+03
 4.9079046E+00  3.0491541E+03
 4.9109478E+00  3.0205676E+03
 4.9139910E+00  2.9976655E+03
 4.9170346E+00  2.9814124E+03
 4.9200778E+00  2.9733240E+03
 4.9231215E+00  2.9663403E+03
 4.9261646E+00  2.9245264E+03
 4.9292083E+00  2.8974419E+03
 4.9322515E+00  2.8785273E+03
 4.9352946E+00  2.8750449E+03
 4.9383383E+00  2.8861262E+03
 4.9413815E+00  2.8428362E+03
 4.9444251E+00  2.7937681E+03
 4.9474683E+00  2.8018647E+03
 4.9505119E+00  2.8058923E+03
 4.9535551E+00  2.8144988E+03
 4.9565988E+00  2.7885952E+03
 4.9596419E+00  2.7621841E+03
 4.9626851E+00  2.8104246E+03
 4.9657288E+00  2.8267336E+03
 4.9687719E+00  2.8052817E+03
 4.9718156E+00  2.7481165E+03
 4.9748588E+00  2.7429766E+03
 4.9779024E+00  2.7657659E+03
 4.9809456E+00  2.7384316E+03
 4.9839888E+00  2.7189548E+03
 4.9870324E+00  2.7227451E+03
 4.9900756E+00  2.7152310E+03
 4.9931192E+00  2.7179365E+03
 4.9961624E+00  2.7013489E+03
 4.9992061E+00  2.6890605E+03
 5.0022492E+00  2.7046563E+03
 5.0052929E+00  2.7056665E+03
 5.0083361E+00  2.6779368E+03
 5.0113792E+00  2.6670786E+03
 5.0144229E+00  2.6648967E+03
 5.0174661E+00  2.6446689E+03
 5.0205097E+00  2.6188162E+03
 5.0235529E+00  2.6301396E+03
 5.0265965E+00  2.6664067E+03
 5.0296397E+00  2.6754268E+03
 5.0326829E+00  2.6121553E+03
 5.0357265E+00  2.6263823E+03
 5.0387697E+00  2.6429463E+03
 5.0418134E+00  2.5907017E+03
 5.0448565E+00  2.5703040E+03
 5.0479002E+00  2.5505027E+03
 5.0509434E+00  2.5345901E+03
 5.0539870E+00  2.5271926E+03
 5.0570302E+00  2.5399104E+03
 5.0600734E+00  2.5712271E+03
 5.0631170E+00  2.5612004E+03
 5.0661602E+00  2.5473335E+03
 5.0692039E+00  2.5551462E+03
 5.0722470E+00  2.5605347E+03
