C:\Users\geste_000\Documents\MatLab Analysis\PSU\(111) Dense\clamped files\354.t
2-Theta Angle (Degrees)
Intensity
       1500
 5.1021564E-01  9.3239825E+02
 5.1325899E-01  8.9169714E+02
 5.1630241E-01  9.6548846E+02
 5.1934576E-01  1.0349558E+03
 5.2238917E-01  1.0246740E+03
 5.2543253E-01  1.0714978E+03
 5.2847594E-01  1.1124728E+03
 5.3151929E-01  1.0526766E+03
 5.3456271E-01  1.1240493E+03
 5.3760606E-01  1.0357672E+03
 5.4064947E-01  9.6211206E+02
 5.4369283E-01  1.0032522E+03
 5.4673624E-01  1.0262665E+03
 5.4977959E-01  1.0394819E+03
 5.5282301E-01  9.7971252E+02
 5.5586636E-01  9.6433099E+02
 5.5890977E-01  9.8085675E+02
 5.6195313E-01  1.0477885E+03
 5.6499654E-01  1.1264811E+03
 5.6803989E-01  1.0692128E+03
 5.7108331E-01  1.0655306E+03
 5.7412666E-01  1.0642263E+03
 5.7717007E-01  1.0543296E+03
 5.8021343E-01  1.0060692E+03
 5.8325684E-01  1.0573876E+03
 5.8630019E-01  1.0598215E+03
 5.8934361E-01  9.2822479E+02
 5.9238696E-01  9.7266211E+02
 5.9543037E-01  1.0664675E+03
 5.9847373E-01  9.7995294E+02
 6.0151714E-01  9.1921710E+02
 6.0456049E-01  9.4955737E+02
 6.0760391E-01  9.8114917E+02
 6.1064726E-01  1.0088325E+03
 6.1369067E-01  1.0160948E+03
 6.1673403E-01  1.0499032E+03
 6.1977744E-01  9.4406152E+02
 6.2282079E-01  9.3796191E+02
 6.2586421E-01  1.0490065E+03
 6.2890756E-01  1.0986556E+03
 6.3195097E-01  1.1205137E+03
 6.3499433E-01  1.0999802E+03
 6.3803774E-01  1.0053367E+03
 6.4108109E-01  9.0916357E+02
 6.4412451E-01  9.4569934E+02
 6.4716786E-01  9.7877466E+02
 6.5021127E-01  9.4060095E+02
 6.5325463E-01  9.2968616E+02
 6.5629804E-01  9.6605481E+02
 6.5934139E-01  9.5381647E+02
 6.6238481E-01  9.6572290E+02
 6.6542816E-01  9.7510974E+02
 6.6847157E-01  9.6759479E+02
 6.7151493E-01  9.8322687E+02
 6.7455834E-01  9.8230707E+02
 6.7760170E-01  9.6150555E+02
 6.8064511E-01  9.3251776E+02
 6.8368846E-01  9.3368939E+02
 6.8673187E-01  9.7986359E+02
 6.8977523E-01  9.7187732E+02
 6.9281864E-01  9.6376343E+02
 6.9586200E-01  9.9709235E+02
 6.9890541E-01  9.7070856E+02
 7.0194876E-01  9.7320172E+02
 7.0499218E-01  9.7335938E+02
 7.0803553E-01  9.6787317E+02
 7.1107894E-01  1.0358088E+03
 7.1412230E-01  1.0332327E+03
 7.1716571E-01  1.0132905E+03
 7.2020906E-01  1.0818276E+03
 7.2325248E-01  1.0801682E+03
 7.2629583E-01  1.0131255E+03
 7.2933924E-01  1.0590604E+03
 7.3238260E-01  1.0844871E+03
 7.3542601E-01  1.0274226E+03
 7.3846936E-01  9.8364941E+02
 7.4151278E-01  9.8855029E+02
 7.4455613E-01  1.0349766E+03
 7.4759954E-01  1.0513184E+03
 7.5064290E-01  1.0488877E+03
 7.5368631E-01  1.0529746E+03
 7.5672966E-01  1.0768409E+03
 7.5977308E-01  1.0734301E+03
 7.6281643E-01  1.0417426E+03
 7.6585984E-01  1.0485264E+03
 7.6890320E-01  1.0033632E+03
 7.7194661E-01  1.0077592E+03
 7.7498996E-01  1.0009323E+03
 7.7803338E-01  1.0476556E+03
 7.8107673E-01  1.0304207E+03
 7.8412014E-01  9.5263611E+02
 7.8716350E-01  9.7503638E+02
 7.9020691E-01  1.0216318E+03
 7.9325026E-01  1.1157832E+03
 7.9629368E-01  1.0925685E+03
 7.9933703E-01  1.0875995E+03
 8.0238044E-01  1.0906721E+03
 8.0542380E-01  1.0706206E+03
 8.0846721E-01  1.1069387E+03
 8.1151056E-01  1.1128728E+03
 8.1455398E-01  1.0764476E+03
 8.1759733E-01  1.0033875E+03
 8.2064074E-01  1.0313591E+03
 8.2368410E-01  1.1143831E+03
 8.2672751E-01  1.1167255E+03
 8.2977086E-01  1.1162202E+03
 8.3281428E-01  1.0807068E+03
 8.3585763E-01  1.0590814E+03
 8.3890104E-01  1.0956659E+03
 8.4194440E-01  1.0494373E+03
 8.4498781E-01  9.6684241E+02
 8.4803116E-01  1.0391265E+03
 8.5107458E-01  1.1077473E+03
 8.5411793E-01  1.0089494E+03
 8.5716134E-01  9.5530121E+02
 8.6020470E-01  9.8276306E+02
 8.6324811E-01  9.3825793E+02
 8.6629146E-01  9.3639948E+02
 8.6933488E-01  1.0336438E+03
 8.7237823E-01  1.0136428E+03
 8.7542164E-01  1.0115714E+03
 8.7846500E-01  1.0064327E+03
 8.8150841E-01  9.6432037E+02
 8.8455176E-01  9.6680237E+02
 8.8759518E-01  9.6382343E+02
 8.9063853E-01  9.8599323E+02
 8.9368194E-01  1.0515347E+03
 8.9672530E-01  1.0976676E+03
 8.9976871E-01  1.0692612E+03
 9.0281206E-01  1.0297981E+03
 9.0585548E-01  9.9103308E+02
 9.0889883E-01  1.0018766E+03
 9.1194224E-01  1.0089717E+03
 9.1498560E-01  1.0973497E+03
 9.1802901E-01  1.0998666E+03
 9.2107236E-01  1.0300785E+03
 9.2411578E-01  1.0316285E+03
 9.2715913E-01  9.9491406E+02
 9.3020254E-01  9.9875879E+02
 9.3324590E-01  1.0094111E+03
 9.3628931E-01  1.0617231E+03
 9.3933266E-01  1.0811904E+03
 9.4237608E-01  1.0745831E+03
 9.4541943E-01  1.0256227E+03
 9.4846284E-01  1.0021718E+03
 9.5150620E-01  1.0995110E+03
 9.5454961E-01  1.0499023E+03
 9.5759296E-01  1.0080402E+03
 9.6063638E-01  1.0693047E+03
 9.6367973E-01  1.1172720E+03
 9.6672314E-01  9.8076215E+02
 9.6976650E-01  9.5181232E+02
 9.7280991E-01  9.6273279E+02
 9.7585326E-01  9.6790393E+02
 9.7889668E-01  9.7425592E+02
 9.8194003E-01  1.0047969E+03
 9.8498344E-01  1.0487356E+03
 9.8802680E-01  1.0267697E+03
 9.9107021E-01  1.0569839E+03
 9.9411356E-01  1.0774438E+03
 9.9715698E-01  1.0263895E+03
 1.0002004E+00  1.0607776E+03
 1.0032437E+00  1.0946385E+03
 1.0062871E+00  1.1281024E+03
 1.0093305E+00  1.1393727E+03
 1.0123739E+00  1.0461862E+03
 1.0154172E+00  1.0311771E+03
 1.0184606E+00  1.0290337E+03
 1.0215040E+00  1.1433173E+03
 1.0245475E+00  1.1659990E+03
 1.0275908E+00  1.0842343E+03
 1.0306342E+00  1.1091045E+03
 1.0336776E+00  1.1650962E+03
 1.0367210E+00  1.1199210E+03
 1.0397643E+00  1.0957639E+03
 1.0428077E+00  1.1153912E+03
 1.0458511E+00  1.0927313E+03
 1.0488945E+00  1.1326036E+03
 1.0519378E+00  1.1369974E+03
 1.0549812E+00  1.1409183E+03
 1.0580246E+00  1.0937788E+03
 1.0610681E+00  1.0880271E+03
 1.0641114E+00  1.1125502E+03
 1.0671548E+00  1.0614977E+03
 1.0701982E+00  1.0611492E+03
 1.0732416E+00  1.1056223E+03
 1.0762849E+00  1.1309869E+03
 1.0793283E+00  1.1049878E+03
 1.0823717E+00  1.0814735E+03
 1.0854151E+00  1.0792681E+03
 1.0884584E+00  1.1026912E+03
 1.0915018E+00  1.1532982E+03
 1.0945452E+00  1.1716885E+03
 1.0975887E+00  1.0631929E+03
 1.1006320E+00  1.0572980E+03
 1.1036754E+00  1.1064757E+03
 1.1067188E+00  1.0517695E+03
 1.1097622E+00  1.0207271E+03
 1.1128055E+00  1.0503716E+03
 1.1158489E+00  1.0849965E+03
 1.1188923E+00  1.0975527E+03
 1.1219357E+00  1.1238572E+03
 1.1249790E+00  1.1743118E+03
 1.1280224E+00  1.1365793E+03
 1.1310658E+00  1.1286415E+03
 1.1341093E+00  1.1236625E+03
 1.1371526E+00  1.1232631E+03
 1.1401960E+00  1.1588413E+03
 1.1432394E+00  1.1036726E+03
 1.1462828E+00  1.0560784E+03
 1.1493261E+00  1.0744871E+03
 1.1523695E+00  1.1248707E+03
 1.1554129E+00  1.1783618E+03
 1.1584562E+00  1.1398784E+03
 1.1614996E+00  1.0956960E+03
 1.1645430E+00  1.1336503E+03
 1.1675864E+00  1.1436904E+03
 1.1706297E+00  1.1512689E+03
 1.1736732E+00  1.1729962E+03
 1.1767166E+00  1.1785967E+03
 1.1797600E+00  1.1780817E+03
 1.1828033E+00  1.1662944E+03
 1.1858467E+00  1.1312222E+03
 1.1888901E+00  1.1469906E+03
 1.1919335E+00  1.1622880E+03
 1.1949768E+00  1.1298228E+03
 1.1980202E+00  1.1102816E+03
 1.2010636E+00  1.1266166E+03
 1.2041070E+00  1.1052015E+03
 1.2071503E+00  1.0822522E+03
 1.2101938E+00  1.1680671E+03
 1.2132372E+00  1.1361609E+03
 1.2162806E+00  1.0597738E+03
 1.2193239E+00  1.1076387E+03
 1.2223673E+00  1.1524440E+03
 1.2254107E+00  1.1517153E+03
 1.2284541E+00  1.1226283E+03
 1.2314974E+00  1.0883558E+03
 1.2345408E+00  1.0854412E+03
 1.2375842E+00  1.0634878E+03
 1.2406276E+00  1.0447375E+03
 1.2436709E+00  1.0972966E+03
 1.2467144E+00  1.1557823E+03
 1.2497578E+00  1.1286797E+03
 1.2528012E+00  1.0841355E+03
 1.2558445E+00  1.0797841E+03
 1.2588879E+00  1.1381661E+03
 1.2619313E+00  1.2062742E+03
 1.2649747E+00  1.1389661E+03
 1.2680180E+00  1.0992266E+03
 1.2710614E+00  1.1722982E+03
 1.2741048E+00  1.1998340E+03
 1.2771482E+00  1.1209716E+03
 1.2801915E+00  1.0709128E+03
 1.2832350E+00  1.0526696E+03
 1.2862784E+00  1.1083201E+03
 1.2893218E+00  1.1248759E+03
 1.2923651E+00  1.1130115E+03
 1.2954085E+00  1.1637031E+03
 1.2984519E+00  1.1355553E+03
 1.3014953E+00  1.1320325E+03
 1.3045386E+00  1.1705912E+03
 1.3075820E+00  1.1717079E+03
 1.3106254E+00  1.1563160E+03
 1.3136688E+00  1.1459885E+03
 1.3167121E+00  1.1358463E+03
 1.3197556E+00  1.1455800E+03
 1.3227990E+00  1.1605430E+03
 1.3258424E+00  1.1090519E+03
 1.3288857E+00  1.0624871E+03
 1.3319291E+00  1.0978541E+03
 1.3349725E+00  1.1086656E+03
 1.3380159E+00  1.0931516E+03
 1.3410592E+00  1.1187842E+03
 1.3441026E+00  1.1649568E+03
 1.3471460E+00  1.2083202E+03
 1.3501894E+00  1.2011350E+03
 1.3532327E+00  1.2036327E+03
 1.3562762E+00  1.1623151E+03
 1.3593196E+00  1.1245935E+03
 1.3623630E+00  1.1106700E+03
 1.3654063E+00  1.1279081E+03
 1.3684497E+00  1.1763448E+03
 1.3714931E+00  1.1756974E+03
 1.3745365E+00  1.1546652E+03
 1.3775798E+00  1.1852421E+03
 1.3806232E+00  1.2186193E+03
 1.3836666E+00  1.1339072E+03
 1.3867100E+00  1.1974412E+03
 1.3897533E+00  1.2092672E+03
 1.3927968E+00  1.1510300E+03
 1.3958402E+00  1.2015295E+03
 1.3988836E+00  1.2305518E+03
 1.4019269E+00  1.2020145E+03
 1.4049703E+00  1.1748944E+03
 1.4080137E+00  1.1530028E+03
 1.4110571E+00  1.1759777E+03
 1.4141004E+00  1.2085676E+03
 1.4171438E+00  1.1800461E+03
 1.4201872E+00  1.1513923E+03
 1.4232306E+00  1.1831979E+03
 1.4262739E+00  1.2155566E+03
 1.4293174E+00  1.2631313E+03
 1.4323608E+00  1.2521075E+03
 1.4354042E+00  1.2354606E+03
 1.4384475E+00  1.2188621E+03
 1.4414909E+00  1.2370598E+03
 1.4445343E+00  1.2568009E+03
 1.4475777E+00  1.2496154E+03
 1.4506210E+00  1.2295414E+03
 1.4536644E+00  1.1860920E+03
 1.4567078E+00  1.1544274E+03
 1.4597512E+00  1.1220630E+03
 1.4627945E+00  1.1211941E+03
 1.4658380E+00  1.1774912E+03
 1.4688814E+00  1.2278875E+03
 1.4719248E+00  1.2166437E+03
 1.4749681E+00  1.2312722E+03
 1.4780115E+00  1.2548823E+03
 1.4810549E+00  1.2516844E+03
 1.4840983E+00  1.2494070E+03
 1.4871416E+00  1.3038510E+03
 1.4901850E+00  1.3470066E+03
 1.4932284E+00  1.3020906E+03
 1.4962718E+00  1.2943928E+03
 1.4993151E+00  1.2585778E+03
 1.5023586E+00  1.2180021E+03
 1.5054020E+00  1.2835909E+03
 1.5084454E+00  1.3006289E+03
 1.5114887E+00  1.3263444E+03
 1.5145321E+00  1.3525098E+03
 1.5175755E+00  1.3431385E+03
 1.5206189E+00  1.3792981E+03
 1.5236622E+00  1.4256230E+03
 1.5267056E+00  1.4787383E+03
 1.5297490E+00  1.5176249E+03
 1.5327924E+00  1.5728602E+03
 1.5358357E+00  1.6574773E+03
 1.5388792E+00  1.6468737E+03
 1.5419226E+00  1.6193495E+03
 1.5449660E+00  1.5342559E+03
 1.5480093E+00  1.4665016E+03
 1.5510527E+00  1.3976735E+03
 1.5540961E+00  1.3138280E+03
 1.5571395E+00  1.2645989E+03
 1.5601828E+00  1.2763849E+03
 1.5632262E+00  1.2540054E+03
 1.5662696E+00  1.2227229E+03
 1.5693130E+00  1.2309777E+03
 1.5723563E+00  1.2138517E+03
 1.5753998E+00  1.2318634E+03
 1.5784432E+00  1.2548165E+03
 1.5814866E+00  1.2784523E+03
 1.5845299E+00  1.2554135E+03
 1.5875733E+00  1.2267183E+03
 1.5906167E+00  1.2349006E+03
 1.5936601E+00  1.2507219E+03
 1.5967034E+00  1.2604907E+03
 1.5997468E+00  1.2132408E+03
 1.6027902E+00  1.1662839E+03
 1.6058336E+00  1.1884961E+03
 1.6088769E+00  1.1951578E+03
 1.6119204E+00  1.1555374E+03
 1.6149638E+00  1.1776158E+03
 1.6180072E+00  1.2239541E+03
 1.6210505E+00  1.1498026E+03
 1.6240939E+00  1.1384746E+03
 1.6271373E+00  1.1928401E+03
 1.6301807E+00  1.1982572E+03
 1.6332240E+00  1.1371475E+03
 1.6362674E+00  1.1608262E+03
 1.6393108E+00  1.2066613E+03
 1.6423542E+00  1.2351858E+03
 1.6453975E+00  1.2485112E+03
 1.6484410E+00  1.2100693E+03
 1.6514844E+00  1.1893420E+03
 1.6545278E+00  1.1825930E+03
 1.6575711E+00  1.2124216E+03
 1.6606145E+00  1.2015170E+03
 1.6636579E+00  1.1769060E+03
 1.6667013E+00  1.1950099E+03
 1.6697446E+00  1.2122875E+03
 1.6727880E+00  1.2527301E+03
 1.6758314E+00  1.2199164E+03
 1.6788749E+00  1.1240829E+03
 1.6819181E+00  1.1246063E+03
 1.6849616E+00  1.1888484E+03
 1.6880050E+00  1.2360353E+03
 1.6910484E+00  1.2332738E+03
 1.6940917E+00  1.2494449E+03
 1.6971351E+00  1.2675691E+03
 1.7001785E+00  1.2501072E+03
 1.7032219E+00  1.1748101E+03
 1.7062652E+00  1.1668881E+03
 1.7093086E+00  1.1793143E+03
 1.7123520E+00  1.2375403E+03
 1.7153955E+00  1.3195992E+03
 1.7184387E+00  1.3432207E+03
 1.7214822E+00  1.3030938E+03
 1.7245256E+00  1.2967230E+03
 1.7275690E+00  1.2643158E+03
 1.7306123E+00  1.2294562E+03
 1.7336557E+00  1.2445428E+03
 1.7366991E+00  1.2445103E+03
 1.7397425E+00  1.2981143E+03
 1.7427858E+00  1.2624889E+03
 1.7458292E+00  1.2338489E+03
 1.7488726E+00  1.2337937E+03
 1.7519161E+00  1.2293636E+03
 1.7549593E+00  1.2484175E+03
 1.7580028E+00  1.2252841E+03
 1.7610462E+00  1.2042094E+03
 1.7640896E+00  1.1766874E+03
 1.7671329E+00  1.1714596E+03
 1.7701763E+00  1.2039760E+03
 1.7732197E+00  1.2521501E+03
 1.7762631E+00  1.2737574E+03
 1.7793064E+00  1.2367968E+03
 1.7823498E+00  1.2261996E+03
 1.7853932E+00  1.2017651E+03
 1.7884367E+00  1.2200975E+03
 1.7914799E+00  1.2637976E+03
 1.7945234E+00  1.2213387E+03
 1.7975668E+00  1.2003812E+03
 1.8006102E+00  1.2138995E+03
 1.8036535E+00  1.2457881E+03
 1.8066969E+00  1.2772396E+03
 1.8097403E+00  1.2681219E+03
 1.8127837E+00  1.2344790E+03
 1.8158270E+00  1.1217994E+03
 1.8188704E+00  1.1435253E+03
 1.8219138E+00  1.2503282E+03
 1.8249573E+00  1.3088384E+03
 1.8280005E+00  1.2977401E+03
 1.8310440E+00  1.2364015E+03
 1.8340874E+00  1.2157753E+03
 1.8371308E+00  1.2457817E+03
 1.8401741E+00  1.2941166E+03
 1.8432175E+00  1.2685315E+03
 1.8462609E+00  1.2462533E+03
 1.8493043E+00  1.2607625E+03
 1.8523476E+00  1.2591669E+03
 1.8553910E+00  1.2351660E+03
 1.8584344E+00  1.2231035E+03
 1.8614779E+00  1.2537236E+03
 1.8645211E+00  1.2905809E+03
 1.8675646E+00  1.2970089E+03
 1.8706080E+00  1.2841348E+03
 1.8736514E+00  1.2947723E+03
 1.8766947E+00  1.3109149E+03
 1.8797381E+00  1.3281776E+03
 1.8827815E+00  1.3150120E+03
 1.8858249E+00  1.2778176E+03
 1.8888682E+00  1.2446029E+03
 1.8919116E+00  1.2187159E+03
 1.8949550E+00  1.2008450E+03
 1.8979985E+00  1.1500640E+03
 1.9010417E+00  1.1979241E+03
 1.9040852E+00  1.2489421E+03
 1.9071286E+00  1.2209011E+03
 1.9101719E+00  1.2329319E+03
 1.9132153E+00  1.2906349E+03
 1.9162587E+00  1.3278276E+03
 1.9193021E+00  1.3601139E+03
 1.9223454E+00  1.3594819E+03
 1.9253888E+00  1.3262368E+03
 1.9284322E+00  1.2890016E+03
 1.9314756E+00  1.2920010E+03
 1.9345189E+00  1.2827227E+03
 1.9375623E+00  1.2417491E+03
 1.9406058E+00  1.2759026E+03
 1.9436492E+00  1.3171072E+03
 1.9466925E+00  1.2797301E+03
 1.9497359E+00  1.2507603E+03
 1.9527793E+00  1.2408020E+03
 1.9558227E+00  1.2619225E+03
 1.9588660E+00  1.2768124E+03
 1.9619094E+00  1.3002955E+03
 1.9649528E+00  1.2907400E+03
 1.9679962E+00  1.2501956E+03
 1.9710395E+00  1.2827694E+03
 1.9740829E+00  1.2916626E+03
 1.9771264E+00  1.2372061E+03
 1.9801698E+00  1.2689969E+03
 1.9832131E+00  1.2869799E+03
 1.9862565E+00  1.2431229E+03
 1.9892999E+00  1.2688497E+03
 1.9923433E+00  1.3014926E+03
 1.9953866E+00  1.2735804E+03
 1.9984300E+00  1.2546786E+03
 2.0014734E+00  1.3229928E+03
 2.0045168E+00  1.4019817E+03
 2.0075603E+00  1.3190808E+03
 2.0106037E+00  1.2860571E+03
 2.0136468E+00  1.3163062E+03
 2.0166903E+00  1.2988851E+03
 2.0197337E+00  1.2874369E+03
 2.0227771E+00  1.2983901E+03
 2.0258205E+00  1.2972169E+03
 2.0288639E+00  1.3330192E+03
 2.0319073E+00  1.3560500E+03
 2.0349507E+00  1.3435562E+03
 2.0379939E+00  1.3268221E+03
 2.0410373E+00  1.2974113E+03
 2.0440807E+00  1.2849189E+03
 2.0471241E+00  1.3500140E+03
 2.0501676E+00  1.3447994E+03
 2.0532110E+00  1.2889078E+03
 2.0562544E+00  1.2965645E+03
 2.0592978E+00  1.2979667E+03
 2.0623410E+00  1.2775325E+03
 2.0653844E+00  1.2808512E+03
 2.0684278E+00  1.2977318E+03
 2.0714712E+00  1.3173625E+03
 2.0745146E+00  1.2981787E+03
 2.0775580E+00  1.3273544E+03
 2.0806015E+00  1.3327737E+03
 2.0836449E+00  1.3325490E+03
 2.0866880E+00  1.3283833E+03
 2.0897315E+00  1.3072803E+03
 2.0927749E+00  1.3144705E+03
 2.0958183E+00  1.3253824E+03
 2.0988617E+00  1.3201018E+03
 2.1019051E+00  1.3052827E+03
 2.1049485E+00  1.3335204E+03
 2.1079919E+00  1.3660879E+03
 2.1110351E+00  1.3915403E+03
 2.1140785E+00  1.3966179E+03
 2.1171219E+00  1.4114767E+03
 2.1201653E+00  1.4221310E+03
 2.1232088E+00  1.4319542E+03
 2.1262522E+00  1.4506047E+03
 2.1292956E+00  1.4912115E+03
 2.1323390E+00  1.5147609E+03
 2.1353822E+00  1.5398656E+03
 2.1384256E+00  1.6372305E+03
 2.1414690E+00  1.7709260E+03
 2.1445124E+00  1.8719125E+03
 2.1475558E+00  1.9895486E+03
 2.1505992E+00  2.0618384E+03
 2.1536427E+00  2.0837861E+03
 2.1566861E+00  2.1228184E+03
 2.1597292E+00  2.1919092E+03
 2.1627727E+00  2.2177510E+03
 2.1658161E+00  2.2048188E+03
 2.1688595E+00  2.1738071E+03
 2.1719029E+00  2.1185515E+03
 2.1749463E+00  2.0909155E+03
 2.1779897E+00  2.0719355E+03
 2.1810331E+00  2.0580361E+03
 2.1840763E+00  1.9625652E+03
 2.1871197E+00  1.7934198E+03
 2.1901631E+00  1.7398992E+03
 2.1932065E+00  1.7044572E+03
 2.1962500E+00  1.6212476E+03
 2.1992934E+00  1.6146940E+03
 2.2023368E+00  1.5595897E+03
 2.2053802E+00  1.4884409E+03
 2.2084234E+00  1.4991812E+03
 2.2114668E+00  1.4629442E+03
 2.2145102E+00  1.4174244E+03
 2.2175536E+00  1.4312172E+03
 2.2205970E+00  1.4036256E+03
 2.2236404E+00  1.3529072E+03
 2.2266839E+00  1.4194110E+03
 2.2297273E+00  1.4196910E+03
 2.2327704E+00  1.3401443E+03
 2.2358139E+00  1.2895870E+03
 2.2388573E+00  1.3239939E+03
 2.2419007E+00  1.3536917E+03
 2.2449441E+00  1.3304370E+03
 2.2479875E+00  1.3432952E+03
 2.2510309E+00  1.3748510E+03
 2.2540743E+00  1.3651531E+03
 2.2571175E+00  1.3821940E+03
 2.2601609E+00  1.3991047E+03
 2.2632043E+00  1.4030806E+03
 2.2662477E+00  1.4281288E+03
 2.2692912E+00  1.4050696E+03
 2.2723346E+00  1.3775555E+03
 2.2753780E+00  1.3641649E+03
 2.2784214E+00  1.3752050E+03
 2.2814646E+00  1.3777321E+03
 2.2845080E+00  1.3973157E+03
 2.2875514E+00  1.3973011E+03
 2.2905948E+00  1.3912032E+03
 2.2936382E+00  1.3440018E+03
 2.2966816E+00  1.3318510E+03
 2.2997251E+00  1.3957979E+03
 2.3027685E+00  1.4101671E+03
 2.3058116E+00  1.3944860E+03
 2.3088551E+00  1.4136617E+03
 2.3118985E+00  1.4262863E+03
 2.3149419E+00  1.4051608E+03
 2.3179853E+00  1.3983171E+03
 2.3210287E+00  1.3609385E+03
 2.3240721E+00  1.3365975E+03
 2.3271155E+00  1.3909131E+03
 2.3301587E+00  1.4394541E+03
 2.3332021E+00  1.4066146E+03
 2.3362455E+00  1.3462087E+03
 2.3392889E+00  1.3744189E+03
 2.3423324E+00  1.4146195E+03
 2.3453758E+00  1.4313241E+03
 2.3484192E+00  1.4611450E+03
 2.3514626E+00  1.4810673E+03
 2.3545058E+00  1.4829218E+03
 2.3575492E+00  1.4876016E+03
 2.3605926E+00  1.4628646E+03
 2.3636360E+00  1.4539951E+03
 2.3666794E+00  1.4563295E+03
 2.3697228E+00  1.4817628E+03
 2.3727663E+00  1.5244761E+03
 2.3758097E+00  1.5253577E+03
 2.3788528E+00  1.4646333E+03
 2.3818963E+00  1.4605426E+03
 2.3849397E+00  1.4317572E+03
 2.3879831E+00  1.4151732E+03
 2.3910265E+00  1.4396821E+03
 2.3940699E+00  1.4886030E+03
 2.3971133E+00  1.5016587E+03
 2.4001567E+00  1.4868912E+03
 2.4031999E+00  1.5011146E+03
 2.4062433E+00  1.5159884E+03
 2.4092867E+00  1.5066429E+03
 2.4123302E+00  1.4935573E+03
 2.4153736E+00  1.4521078E+03
 2.4184170E+00  1.4740770E+03
 2.4214604E+00  1.5260175E+03
 2.4245038E+00  1.5213726E+03
 2.4275470E+00  1.5260802E+03
 2.4305904E+00  1.5171771E+03
 2.4336338E+00  1.5297111E+03
 2.4366772E+00  1.5408120E+03
 2.4397206E+00  1.5550636E+03
 2.4427640E+00  1.5559897E+03
 2.4458075E+00  1.5391874E+03
 2.4488509E+00  1.5546979E+03
 2.4518940E+00  1.5716145E+03
 2.4549375E+00  1.5658427E+03
 2.4579809E+00  1.5828668E+03
 2.4610243E+00  1.5739391E+03
 2.4640677E+00  1.5759401E+03
 2.4671111E+00  1.6133383E+03
 2.4701545E+00  1.6500609E+03
 2.4731979E+00  1.6371183E+03
 2.4762411E+00  1.5766729E+03
 2.4792845E+00  1.5761776E+03
 2.4823279E+00  1.5987941E+03
 2.4853714E+00  1.6766422E+03
 2.4884148E+00  1.7174927E+03
 2.4914582E+00  1.7092010E+03
 2.4945016E+00  1.7203429E+03
 2.4975450E+00  1.7236898E+03
 2.5005882E+00  1.6809515E+03
 2.5036316E+00  1.6413726E+03
 2.5066750E+00  1.6595165E+03
 2.5097184E+00  1.6819962E+03
 2.5127618E+00  1.7332721E+03
 2.5158052E+00  1.7388195E+03
 2.5188487E+00  1.7186119E+03
 2.5218921E+00  1.7571871E+03
 2.5249352E+00  1.7878665E+03
 2.5279787E+00  1.8009163E+03
 2.5310221E+00  1.8155353E+03
 2.5340655E+00  1.8430725E+03
 2.5371089E+00  1.8174172E+03
 2.5401523E+00  1.8347990E+03
 2.5431957E+00  1.8906241E+03
 2.5462391E+00  1.9193472E+03
 2.5492823E+00  1.9140602E+03
 2.5523257E+00  1.9454515E+03
 2.5553691E+00  2.0046685E+03
 2.5584126E+00  2.0173990E+03
 2.5614560E+00  2.0217321E+03
 2.5644994E+00  2.0795017E+03
 2.5675428E+00  2.1339023E+03
 2.5705862E+00  2.1710767E+03
 2.5736294E+00  2.2101128E+03
 2.5766728E+00  2.2680376E+03
 2.5797162E+00  2.2775234E+03
 2.5827596E+00  2.3041738E+03
 2.5858030E+00  2.4024924E+03
 2.5888464E+00  2.4848584E+03
 2.5918899E+00  2.5270779E+03
 2.5949333E+00  2.5738022E+03
 2.5979764E+00  2.7682925E+03
 2.6010199E+00  2.8897275E+03
 2.6040633E+00  2.9473914E+03
 2.6071067E+00  3.1036675E+03
 2.6101501E+00  3.2743647E+03
 2.6131935E+00  3.5580293E+03
 2.6162369E+00  3.9007454E+03
 2.6192803E+00  4.3685015E+03
 2.6223235E+00  4.9732100E+03
 2.6253669E+00  5.7181343E+03
 2.6284103E+00  7.0015620E+03
 2.6314538E+00  8.6309258E+03
 2.6344972E+00  1.1206483E+04
 2.6375406E+00  1.5228009E+04
 2.6405840E+00  2.0388193E+04
 2.6436274E+00  2.7945205E+04
 2.6466706E+00  3.4518258E+04
 2.6497140E+00  4.0378250E+04
 2.6527574E+00  4.1743652E+04
 2.6558008E+00  3.9459910E+04
 2.6588442E+00  3.3316258E+04
 2.6618876E+00  2.7015326E+04
 2.6649311E+00  2.0255926E+04
 2.6679742E+00  1.5751699E+04
 2.6710176E+00  1.2287600E+04
 2.6740611E+00  1.0103827E+04
 2.6771045E+00  8.9307100E+03
 2.6801479E+00  8.1283779E+03
 2.6831913E+00  7.8729448E+03
 2.6862347E+00  7.8188872E+03
 2.6892781E+00  8.0468242E+03
 2.6923213E+00  8.3083613E+03
 2.6953647E+00  8.8113691E+03
 2.6984081E+00  9.6615283E+03
 2.7014515E+00  1.0667448E+04
 2.7044950E+00  1.2420742E+04
 2.7075384E+00  1.4651567E+04
 2.7105818E+00  1.8554455E+04
 2.7136252E+00  2.5630945E+04
 2.7166684E+00  3.6852605E+04
 2.7197118E+00  6.3013035E+04
 2.7227552E+00  1.0244417E+05
 2.7257986E+00  1.6943669E+05
 2.7288420E+00  2.3666577E+05
 2.7318854E+00  2.7992628E+05
 2.7349288E+00  2.6465300E+05
 2.7379723E+00  2.1082838E+05
 2.7410154E+00  1.3233869E+05
 2.7440588E+00  8.2823664E+04
 2.7471023E+00  4.8397531E+04
 2.7501457E+00  3.0755512E+04
 2.7531891E+00  2.1768420E+04
 2.7562325E+00  1.6034540E+04
 2.7592759E+00  1.3105925E+04
 2.7623193E+00  1.0892074E+04
 2.7653625E+00  9.4167480E+03
 2.7684059E+00  8.3472598E+03
 2.7714493E+00  7.3849521E+03
 2.7744927E+00  6.7661763E+03
 2.7775362E+00  6.1742856E+03
 2.7805796E+00  5.7055186E+03
 2.7836230E+00  5.2991943E+03
 2.7866664E+00  4.8928032E+03
 2.7897096E+00  4.6347842E+03
 2.7927530E+00  4.3569746E+03
 2.7957964E+00  4.1031509E+03
 2.7988398E+00  3.8549849E+03
 2.8018832E+00  3.6548923E+03
 2.8049266E+00  3.5021938E+03
 2.8079700E+00  3.3030701E+03
 2.8110135E+00  3.2041621E+03
 2.8140566E+00  3.1111763E+03
 2.8171000E+00  2.9672837E+03
 2.8201435E+00  2.9049436E+03
 2.8231869E+00  2.8728337E+03
 2.8262303E+00  2.7774570E+03
 2.8292737E+00  2.6663467E+03
 2.8323171E+00  2.6053130E+03
 2.8353605E+00  2.5544746E+03
 2.8384037E+00  2.4833689E+03
 2.8414471E+00  2.4124810E+03
 2.8444905E+00  2.3499939E+03
 2.8475339E+00  2.3149917E+03
 2.8505774E+00  2.2785593E+03
 2.8536208E+00  2.1980977E+03
 2.8566642E+00  2.1829495E+03
 2.8597076E+00  2.1816653E+03
 2.8627508E+00  2.2030601E+03
 2.8657942E+00  2.1640173E+03
 2.8688376E+00  2.1009602E+03
 2.8718810E+00  2.0965583E+03
 2.8749244E+00  2.0532942E+03
 2.8779678E+00  2.0428805E+03
 2.8810112E+00  2.0596470E+03
 2.8840547E+00  2.0161359E+03
 2.8870978E+00  1.9989064E+03
 2.8901412E+00  1.9968230E+03
 2.8931847E+00  1.9551484E+03
 2.8962281E+00  1.9329648E+03
 2.8992715E+00  1.9244750E+03
 2.9023149E+00  1.9311073E+03
 2.9053583E+00  1.9353624E+03
 2.9084017E+00  1.8984935E+03
 2.9114449E+00  1.8857997E+03
 2.9144883E+00  1.8930862E+03
 2.9175317E+00  1.8596564E+03
 2.9205751E+00  1.8451709E+03
 2.9236186E+00  1.8019357E+03
 2.9266620E+00  1.7723928E+03
 2.9297054E+00  1.8133403E+03
 2.9327488E+00  1.8001106E+03
 2.9357920E+00  1.7968016E+03
 2.9388354E+00  1.8214928E+03
 2.9418788E+00  1.8282498E+03
 2.9449222E+00  1.7923613E+03
 2.9479656E+00  1.8006497E+03
 2.9510090E+00  1.8016891E+03
 2.9540524E+00  1.7746224E+03
 2.9570959E+00  1.7874042E+03
 2.9601390E+00  1.7877950E+03
 2.9631824E+00  1.7659863E+03
 2.9662259E+00  1.7242909E+03
 2.9692693E+00  1.7180444E+03
 2.9723127E+00  1.7317866E+03
 2.9753561E+00  1.7746312E+03
 2.9783995E+00  1.7940256E+03
 2.9814429E+00  1.7798582E+03
 2.9844861E+00  1.7389883E+03
 2.9875295E+00  1.7175815E+03
 2.9905729E+00  1.7489296E+03
 2.9936163E+00  1.8015837E+03
 2.9966598E+00  1.7967793E+03
 2.9997032E+00  1.7506869E+03
 3.0027466E+00  1.7572335E+03
 3.0057900E+00  1.7419014E+03
 3.0088332E+00  1.7443573E+03
 3.0118766E+00  1.7642942E+03
 3.0149200E+00  1.7835372E+03
 3.0179634E+00  1.7912078E+03
 3.0210068E+00  1.8151620E+03
 3.0240502E+00  1.8441185E+03
 3.0270936E+00  1.8212297E+03
 3.0301371E+00  1.7874856E+03
 3.0331802E+00  1.7715525E+03
 3.0362236E+00  1.7609655E+03
 3.0392671E+00  1.7864426E+03
 3.0423105E+00  1.7635646E+03
 3.0453539E+00  1.8017727E+03
 3.0483973E+00  1.8351749E+03
 3.0514407E+00  1.8161125E+03
 3.0544841E+00  1.8140887E+03
 3.0575273E+00  1.7951409E+03
 3.0605707E+00  1.7699293E+03
 3.0636141E+00  1.7922023E+03
 3.0666575E+00  1.8360471E+03
 3.0697010E+00  1.8530210E+03
 3.0727444E+00  1.8911710E+03
 3.0757878E+00  2.0018173E+03
 3.0788312E+00  2.0663577E+03
 3.0818744E+00  2.0906753E+03
 3.0849178E+00  2.1233694E+03
 3.0879612E+00  2.1336704E+03
 3.0910046E+00  2.0701304E+03
 3.0940480E+00  2.0152837E+03
 3.0970914E+00  1.9507157E+03
 3.1001348E+00  1.8974269E+03
 3.1031783E+00  1.9106820E+03
 3.1062214E+00  1.8814731E+03
 3.1092649E+00  1.8311049E+03
 3.1123083E+00  1.8041133E+03
 3.1153517E+00  1.7897943E+03
 3.1183951E+00  1.7988964E+03
 3.1214385E+00  1.7474995E+03
 3.1244819E+00  1.7430081E+03
 3.1275253E+00  1.7863296E+03
 3.1305685E+00  1.7751023E+03
 3.1336119E+00  1.7674563E+03
 3.1366553E+00  1.7891649E+03
 3.1396987E+00  1.7891956E+03
 3.1427422E+00  1.8599210E+03
 3.1457856E+00  1.9703101E+03
 3.1488290E+00  2.0555569E+03
 3.1518724E+00  2.0629248E+03
 3.1549156E+00  2.0750139E+03
 3.1579590E+00  2.0879365E+03
 3.1610024E+00  2.0442037E+03
 3.1640458E+00  1.9758129E+03
 3.1670892E+00  1.8646427E+03
 3.1701326E+00  1.8181976E+03
 3.1731761E+00  1.7711558E+03
 3.1762195E+00  1.7703538E+03
 3.1792626E+00  1.7821720E+03
 3.1823061E+00  1.7090050E+03
 3.1853495E+00  1.6790793E+03
 3.1883929E+00  1.6607227E+03
 3.1914363E+00  1.6698002E+03
 3.1944797E+00  1.6991526E+03
 3.1975231E+00  1.7253563E+03
 3.2005665E+00  1.7015463E+03
 3.2036097E+00  1.6126443E+03
 3.2066531E+00  1.6074427E+03
 3.2096965E+00  1.6499152E+03
 3.2127399E+00  1.6753347E+03
 3.2157834E+00  1.6873660E+03
 3.2188268E+00  1.6810819E+03
 3.2218702E+00  1.6370586E+03
 3.2249136E+00  1.6146451E+03
 3.2279568E+00  1.6588271E+03
 3.2310002E+00  1.6841407E+03
 3.2340436E+00  1.6773654E+03
 3.2370870E+00  1.6696984E+03
 3.2401304E+00  1.6956711E+03
 3.2431738E+00  1.7025863E+03
 3.2462173E+00  1.7103167E+03
 3.2492607E+00  1.6889203E+03
 3.2523038E+00  1.7025012E+03
 3.2553473E+00  1.7387084E+03
 3.2583907E+00  1.7432599E+03
 3.2614341E+00  1.7504348E+03
 3.2644775E+00  1.7164979E+03
 3.2675209E+00  1.7181891E+03
 3.2705643E+00  1.7262673E+03
 3.2736077E+00  1.7040697E+03
 3.2766509E+00  1.7342391E+03
 3.2796943E+00  1.7206995E+03
 3.2827377E+00  1.6757642E+03
 3.2857811E+00  1.6666676E+03
 3.2888246E+00  1.6832528E+03
 3.2918680E+00  1.7269965E+03
 3.2949114E+00  1.6897235E+03
 3.2979548E+00  1.6651863E+03
 3.3009980E+00  1.7013560E+03
 3.3040414E+00  1.6744807E+03
 3.3070848E+00  1.6554733E+03
 3.3101282E+00  1.7004393E+03
 3.3131716E+00  1.7277734E+03
 3.3162150E+00  1.7083317E+03
 3.3192585E+00  1.6745811E+03
 3.3223019E+00  1.6748401E+03
 3.3253450E+00  1.6947070E+03
 3.3283885E+00  1.6956843E+03
 3.3314319E+00  1.7129734E+03
 3.3344753E+00  1.7340194E+03
 3.3375187E+00  1.7394740E+03
 3.3405621E+00  1.6900831E+03
 3.3436055E+00  1.6714260E+03
 3.3466489E+00  1.6922019E+03
 3.3496921E+00  1.6907172E+03
 3.3527355E+00  1.6882871E+03
 3.3557789E+00  1.6980385E+03
 3.3588223E+00  1.7035962E+03
 3.3618658E+00  1.7225338E+03
 3.3649092E+00  1.7868904E+03
 3.3679526E+00  1.7756488E+03
 3.3709960E+00  1.7549237E+03
 3.3740392E+00  1.7623698E+03
 3.3770826E+00  1.7147108E+03
 3.3801260E+00  1.7019821E+03
 3.3831694E+00  1.7308904E+03
 3.3862128E+00  1.7427572E+03
 3.3892562E+00  1.7453881E+03
 3.3922997E+00  1.7864628E+03
 3.3953428E+00  1.8017301E+03
 3.3983862E+00  1.7789968E+03
 3.4014297E+00  1.7556941E+03
 3.4044731E+00  1.7440406E+03
 3.4075165E+00  1.7703307E+03
 3.4105599E+00  1.8025880E+03
 3.4136033E+00  1.8106068E+03
 3.4166467E+00  1.7739141E+03
 3.4196899E+00  1.7778453E+03
 3.4227333E+00  1.8352024E+03
 3.4257767E+00  1.8664651E+03
 3.4288201E+00  1.8714302E+03
 3.4318635E+00  1.8756173E+03
 3.4349070E+00  1.8306195E+03
 3.4379504E+00  1.8101965E+03
 3.4409938E+00  1.8900123E+03
 3.4440370E+00  1.9002610E+03
 3.4470804E+00  1.8564995E+03
 3.4501238E+00  1.8372140E+03
 3.4531672E+00  1.8211196E+03
 3.4562106E+00  1.7948193E+03
 3.4592540E+00  1.7651582E+03
 3.4622974E+00  1.7443403E+03
 3.4653409E+00  1.7320540E+03
 3.4683840E+00  1.7322494E+03
 3.4714274E+00  1.7710326E+03
 3.4744709E+00  1.7678087E+03
 3.4775143E+00  1.7583311E+03
 3.4805577E+00  1.7825725E+03
 3.4836011E+00  1.7807551E+03
 3.4866445E+00  1.7857775E+03
 3.4896879E+00  1.7987240E+03
 3.4927311E+00  1.7797948E+03
 3.4957745E+00  1.7738375E+03
 3.4988179E+00  1.7622867E+03
 3.5018613E+00  1.7877322E+03
 3.5049047E+00  1.8254852E+03
 3.5079482E+00  1.7988685E+03
 3.5109916E+00  1.7860132E+03
 3.5140350E+00  1.8048351E+03
 3.5170782E+00  1.7885615E+03
 3.5201216E+00  1.7846113E+03
 3.5231650E+00  1.8119515E+03
 3.5262084E+00  1.8034385E+03
 3.5292518E+00  1.7862848E+03
 3.5322952E+00  1.8036310E+03
 3.5353386E+00  1.7898389E+03
 3.5383821E+00  1.7669655E+03
 3.5414252E+00  1.7773538E+03
 3.5444686E+00  1.7608307E+03
 3.5475121E+00  1.7665509E+03
 3.5505555E+00  1.8001399E+03
 3.5535989E+00  1.7872740E+03
 3.5566423E+00  1.7885879E+03
 3.5596857E+00  1.8246511E+03
 3.5627291E+00  1.8486406E+03
 3.5657723E+00  1.8715797E+03
 3.5688157E+00  1.8805083E+03
 3.5718591E+00  1.8466772E+03
 3.5749025E+00  1.8007931E+03
 3.5779459E+00  1.8291270E+03
 3.5809894E+00  1.8104828E+03
 3.5840328E+00  1.7825731E+03
 3.5870762E+00  1.7834175E+03
 3.5901194E+00  1.7916453E+03
 3.5931628E+00  1.8355428E+03
 3.5962062E+00  1.8559666E+03
 3.5992496E+00  1.8378679E+03
 3.6022930E+00  1.8358563E+03
 3.6053364E+00  1.8600928E+03
 3.6083798E+00  1.8775465E+03
 3.6114233E+00  1.8801417E+03
 3.6144664E+00  1.8788599E+03
 3.6175098E+00  1.8765541E+03
 3.6205533E+00  1.8717484E+03
 3.6235967E+00  1.8696664E+03
 3.6266401E+00  1.9080144E+03
 3.6296835E+00  1.9308462E+03
 3.6327269E+00  1.9086477E+03
 3.6357703E+00  1.9403104E+03
 3.6388135E+00  1.9316757E+03
 3.6418569E+00  1.9192463E+03
 3.6449003E+00  1.9581331E+03
 3.6479437E+00  1.9895782E+03
 3.6509871E+00  2.0196250E+03
 3.6540306E+00  2.0076245E+03
 3.6570740E+00  2.0183553E+03
 3.6601174E+00  2.0331125E+03
 3.6631606E+00  2.0314724E+03
 3.6662040E+00  2.0574968E+03
 3.6692474E+00  2.0707134E+03
 3.6722908E+00  2.0849165E+03
 3.6753342E+00  2.1217385E+03
 3.6783776E+00  2.1629128E+03
 3.6814210E+00  2.1782908E+03
 3.6844645E+00  2.2283286E+03
 3.6875076E+00  2.3158523E+03
 3.6905510E+00  2.4182441E+03
 3.6935945E+00  2.4800798E+03
 3.6966379E+00  2.5632803E+03
 3.6996813E+00  2.6833113E+03
 3.7027247E+00  2.7966401E+03
 3.7057681E+00  2.9554148E+03
 3.7088115E+00  3.0271741E+03
 3.7118547E+00  3.0963054E+03
 3.7148981E+00  3.1761279E+03
 3.7179415E+00  3.2288865E+03
 3.7209849E+00  3.2801018E+03
 3.7240283E+00  3.3409114E+03
 3.7270718E+00  3.3759524E+03
 3.7301152E+00  3.4083894E+03
 3.7331586E+00  3.4932402E+03
 3.7362018E+00  3.5838037E+03
 3.7392452E+00  3.7245723E+03
 3.7422886E+00  3.9438584E+03
 3.7453320E+00  4.2520713E+03
 3.7483754E+00  4.5859551E+03
 3.7514188E+00  5.0558467E+03
 3.7544622E+00  5.6113237E+03
 3.7575057E+00  6.1874106E+03
 3.7605488E+00  6.6026416E+03
 3.7635922E+00  6.8589502E+03
 3.7666357E+00  6.8662905E+03
 3.7696791E+00  6.5662808E+03
 3.7727225E+00  6.1173931E+03
 3.7757659E+00  5.4798906E+03
 3.7788093E+00  4.9009878E+03
 3.7818527E+00  4.3074019E+03
 3.7848959E+00  3.8444124E+03
 3.7879393E+00  3.4847024E+03
 3.7909827E+00  3.1773589E+03
 3.7940261E+00  2.9523684E+03
 3.7970695E+00  2.7431506E+03
 3.8001130E+00  2.5802544E+03
 3.8031564E+00  2.4854507E+03
 3.8061998E+00  2.4175393E+03
 3.8092430E+00  2.3392065E+03
 3.8122864E+00  2.2930752E+03
 3.8153298E+00  2.2795393E+03
 3.8183732E+00  2.2784585E+03
 3.8214166E+00  2.2434563E+03
 3.8244600E+00  2.1770674E+03
 3.8275034E+00  2.2012109E+03
 3.8305469E+00  2.2336699E+03
 3.8335900E+00  2.2122288E+03
 3.8366334E+00  2.1921184E+03
 3.8396769E+00  2.1807119E+03
 3.8427203E+00  2.1426787E+03
 3.8457637E+00  2.1374382E+03
 3.8488071E+00  2.1478049E+03
 3.8518505E+00  2.1076255E+03
 3.8548939E+00  2.0919712E+03
 3.8579371E+00  2.1213142E+03
 3.8609805E+00  2.1406218E+03
 3.8640239E+00  2.1560718E+03
 3.8670673E+00  2.1153630E+03
 3.8701108E+00  2.0950212E+03
 3.8731542E+00  2.1226938E+03
 3.8761976E+00  2.1011160E+03
 3.8792410E+00  2.0972095E+03
 3.8822842E+00  2.0818679E+03
 3.8853276E+00  2.0860088E+03
 3.8883710E+00  2.1100393E+03
 3.8914144E+00  2.0977676E+03
 3.8944578E+00  2.0934121E+03
 3.8975012E+00  2.0745044E+03
 3.9005446E+00  2.0690020E+03
 3.9035881E+00  2.1102173E+03
 3.9066312E+00  2.1229692E+03
 3.9096746E+00  2.1623108E+03
 3.9127181E+00  2.1635283E+03
 3.9157615E+00  2.1393372E+03
 3.9188049E+00  2.0984290E+03
 3.9218483E+00  2.0975754E+03
 3.9248917E+00  2.1389375E+03
 3.9279351E+00  2.1328918E+03
 3.9309783E+00  2.1138723E+03
 3.9340217E+00  2.1079541E+03
 3.9370651E+00  2.0947661E+03
 3.9401085E+00  2.1188479E+03
 3.9431520E+00  2.1176895E+03
 3.9461954E+00  2.1136990E+03
 3.9492388E+00  2.1807656E+03
 3.9522822E+00  2.1931875E+03
 3.9553254E+00  2.1589558E+03
 3.9583688E+00  2.1453657E+03
 3.9614122E+00  2.1820012E+03
 3.9644556E+00  2.2093721E+03
 3.9674990E+00  2.1897451E+03
 3.9705424E+00  2.1755505E+03
 3.9735858E+00  2.1777893E+03
 3.9766293E+00  2.1793982E+03
 3.9796724E+00  2.1801680E+03
 3.9827158E+00  2.1963198E+03
 3.9857593E+00  2.2248938E+03
 3.9888027E+00  2.2294417E+03
 3.9918461E+00  2.2470840E+03
 3.9948895E+00  2.2799641E+03
 3.9979329E+00  2.2944453E+03
 4.0009761E+00  2.2827676E+03
 4.0040197E+00  2.2513296E+03
 4.0070629E+00  2.2647678E+03
 4.0101066E+00  2.2485635E+03
 4.0131497E+00  2.2560244E+03
 4.0161929E+00  2.2524927E+03
 4.0192366E+00  2.2407632E+03
 4.0222797E+00  2.3013015E+03
 4.0253234E+00  2.3125320E+03
 4.0283666E+00  2.3048477E+03
 4.0314102E+00  2.3369417E+03
 4.0344534E+00  2.3560588E+03
 4.0374970E+00  2.3383369E+03
 4.0405402E+00  2.3483066E+03
 4.0435834E+00  2.3545713E+03
 4.0466270E+00  2.3630947E+03
 4.0496702E+00  2.3690457E+03
 4.0527139E+00  2.3896348E+03
 4.0557570E+00  2.4271226E+03
 4.0588007E+00  2.4036082E+03
 4.0618439E+00  2.3895996E+03
 4.0648870E+00  2.4411055E+03
 4.0679307E+00  2.4534768E+03
 4.0709739E+00  2.4553743E+03
 4.0740175E+00  2.4589680E+03
 4.0770607E+00  2.4560564E+03
 4.0801044E+00  2.4709058E+03
 4.0831475E+00  2.4925027E+03
 4.0861912E+00  2.5029185E+03
 4.0892344E+00  2.5147715E+03
 4.0922775E+00  2.5351965E+03
 4.0953212E+00  2.5497688E+03
 4.0983644E+00  2.5353303E+03
 4.1014080E+00  2.5288787E+03
 4.1044512E+00  2.5387126E+03
 4.1074948E+00  2.5927153E+03
 4.1105380E+00  2.5971519E+03
 4.1135812E+00  2.5980176E+03
 4.1166248E+00  2.6364854E+03
 4.1196680E+00  2.6638169E+03
 4.1227117E+00  2.6901758E+03
 4.1257548E+00  2.6554268E+03
 4.1287985E+00  2.6644678E+03
 4.1318417E+00  2.7321606E+03
 4.1348853E+00  2.7306201E+03
 4.1379285E+00  2.7386750E+03
 4.1409717E+00  2.7648447E+03
 4.1440153E+00  2.7735652E+03
 4.1470585E+00  2.7954114E+03
 4.1501021E+00  2.8232620E+03
 4.1531453E+00  2.8605669E+03
 4.1561890E+00  2.8512148E+03
 4.1592321E+00  2.8733252E+03
 4.1622753E+00  2.9169316E+03
 4.1653190E+00  2.9391040E+03
 4.1683621E+00  2.9461721E+03
 4.1714058E+00  2.9222480E+03
 4.1744490E+00  2.9212268E+03
 4.1774926E+00  2.9080322E+03
 4.1805358E+00  2.9341199E+03
 4.1835790E+00  2.9910857E+03
 4.1866226E+00  3.0280615E+03
 4.1896658E+00  3.0305510E+03
 4.1927094E+00  3.0595098E+03
 4.1957526E+00  3.0920522E+03
 4.1987963E+00  3.1070405E+03
 4.2018394E+00  3.1042041E+03
 4.2048831E+00  3.0871116E+03
 4.2079263E+00  3.1397966E+03
 4.2109694E+00  3.1995508E+03
 4.2140131E+00  3.2295588E+03
 4.2170563E+00  3.2455723E+03
 4.2200999E+00  3.2127402E+03
 4.2231431E+00  3.2110610E+03
 4.2261868E+00  3.2757466E+03
 4.2292299E+00  3.2789556E+03
 4.2322731E+00  3.2974011E+03
 4.2353168E+00  3.3212764E+03
 4.2383599E+00  3.3151802E+03
 4.2414036E+00  3.3341970E+03
 4.2444468E+00  3.3736902E+03
 4.2474904E+00  3.4170461E+03
 4.2505336E+00  3.4388696E+03
 4.2535772E+00  3.5039321E+03
 4.2566204E+00  3.5366990E+03
 4.2596636E+00  3.5166987E+03
 4.2627072E+00  3.5209426E+03
 4.2657504E+00  3.5331636E+03
 4.2687941E+00  3.5754985E+03
 4.2718372E+00  3.5933223E+03
 4.2748809E+00  3.5930161E+03
 4.2779241E+00  3.6311294E+03
 4.2809672E+00  3.6641592E+03
 4.2840109E+00  3.7300381E+03
 4.2870541E+00  3.7475107E+03
 4.2900977E+00  3.7410503E+03
 4.2931409E+00  3.7883923E+03
 4.2961845E+00  3.8007354E+03
 4.2992277E+00  3.8473052E+03
 4.3022714E+00  3.9038479E+03
 4.3053145E+00  3.9052009E+03
 4.3083577E+00  3.9123428E+03
 4.3114014E+00  3.8935464E+03
 4.3144445E+00  3.9246108E+03
 4.3174882E+00  3.9990313E+03
 4.3205314E+00  3.9919810E+03
 4.3235750E+00  4.0029373E+03
 4.3266182E+00  4.0005222E+03
 4.3296614E+00  3.9989072E+03
 4.3327050E+00  4.0543225E+03
 4.3357482E+00  4.0774099E+03
 4.3387918E+00  4.0621609E+03
 4.3418350E+00  4.0670342E+03
 4.3448787E+00  4.0782148E+03
 4.3479218E+00  4.1160215E+03
 4.3509655E+00  4.1345952E+03
 4.3540087E+00  4.1757129E+03
 4.3570518E+00  4.2111099E+03
 4.3600955E+00  4.1974414E+03
 4.3631387E+00  4.2083926E+03
 4.3661823E+00  4.1909849E+03
 4.3692255E+00  4.2142695E+03
 4.3722692E+00  4.2295977E+03
 4.3753123E+00  4.2407085E+03
 4.3783555E+00  4.3282271E+03
 4.3813992E+00  4.3002354E+03
 4.3844423E+00  4.2448315E+03
 4.3874860E+00  4.2319927E+03
 4.3905292E+00  4.2434976E+03
 4.3935728E+00  4.3003350E+03
 4.3966160E+00  4.2482861E+03
 4.3996596E+00  4.2553086E+03
 4.4027028E+00  4.2565630E+03
 4.4057460E+00  4.1944609E+03
 4.4087896E+00  4.2033999E+03
 4.4118328E+00  4.2146465E+03
 4.4148765E+00  4.2249204E+03
 4.4179196E+00  4.2131030E+03
 4.4209633E+00  4.2257402E+03
 4.4240065E+00  4.3049043E+03
 4.4270496E+00  4.3110034E+03
 4.4300933E+00  4.3024790E+03
 4.4331365E+00  4.2787925E+03
 4.4361801E+00  4.2437354E+03
 4.4392233E+00  4.2779453E+03
 4.4422669E+00  4.2515322E+03
 4.4453101E+00  4.3315498E+03
 4.4483538E+00  4.4219111E+03
 4.4513969E+00  4.4053276E+03
 4.4544401E+00  4.3774390E+03
 4.4574838E+00  4.3397803E+03
 4.4605269E+00  4.3827646E+03
 4.4635706E+00  4.4408599E+03
 4.4666138E+00  4.4579277E+03
 4.4696574E+00  4.4685127E+03
 4.4727006E+00  4.4017524E+03
 4.4757438E+00  4.3649473E+03
 4.4787874E+00  4.3506475E+03
 4.4818306E+00  4.2819307E+03
 4.4848742E+00  4.3337314E+03
 4.4879174E+00  4.3585815E+03
 4.4909611E+00  4.3523354E+03
 4.4940042E+00  4.3299888E+03
 4.4970479E+00  4.2701855E+03
 4.5000911E+00  4.2924775E+03
 4.5031343E+00  4.2502935E+03
 4.5061779E+00  4.2536792E+03
 4.5092211E+00  4.3318257E+03
 4.5122647E+00  4.3394150E+03
 4.5153079E+00  4.3906230E+03
 4.5183516E+00  4.3873071E+03
 4.5213947E+00  4.3412759E+03
 4.5244379E+00  4.3320112E+03
 4.5274816E+00  4.3384185E+03
 4.5305247E+00  4.4277046E+03
 4.5335684E+00  4.3878398E+03
 4.5366116E+00  4.3944468E+03
 4.5396552E+00  4.4473164E+03
 4.5426984E+00  4.4118105E+03
 4.5457420E+00  4.4960337E+03
 4.5487852E+00  4.5357134E+03
 4.5518284E+00  4.6176904E+03
 4.5548720E+00  4.7090298E+03
 4.5579152E+00  4.7515396E+03
 4.5609589E+00  4.8828232E+03
 4.5640020E+00  4.9391392E+03
 4.5670457E+00  5.0147344E+03
 4.5700889E+00  5.0930352E+03
 4.5731320E+00  5.1354048E+03
 4.5761757E+00  5.2240093E+03
 4.5792189E+00  5.2184165E+03
 4.5822625E+00  5.2417603E+03
 4.5853057E+00  5.2580659E+03
 4.5883493E+00  5.1370015E+03
 4.5913925E+00  5.0802231E+03
 4.5944362E+00  5.0064448E+03
 4.5974793E+00  4.9503774E+03
 4.6005225E+00  4.9320034E+03
 4.6035662E+00  4.8407344E+03
 4.6066093E+00  4.8276084E+03
 4.6096530E+00  4.7804468E+03
 4.6126962E+00  4.7725513E+03
 4.6157398E+00  4.7772041E+03
 4.6187830E+00  4.6954087E+03
 4.6218262E+00  4.7046333E+03
 4.6248698E+00  4.7038452E+03
 4.6279130E+00  4.6771152E+03
 4.6309566E+00  4.6525337E+03
 4.6339998E+00  4.5737266E+03
 4.6370435E+00  4.5524810E+03
 4.6400867E+00  4.4645708E+03
 4.6431303E+00  4.3558721E+03
 4.6461735E+00  4.3120298E+03
 4.6492167E+00  4.2281650E+03
 4.6522603E+00  4.2084219E+03
 4.6553035E+00  4.1456465E+03
 4.6583471E+00  4.0847266E+03
 4.6613903E+00  4.0822476E+03
 4.6644340E+00  4.0465410E+03
 4.6674771E+00  4.0676855E+03
 4.6705203E+00  4.0616741E+03
 4.6735640E+00  4.0134541E+03
 4.6766071E+00  3.9714858E+03
 4.6796508E+00  3.8958452E+03
 4.6826940E+00  3.9177502E+03
 4.6857376E+00  3.9395396E+03
 4.6887808E+00  3.9782244E+03
 4.6918244E+00  3.9794312E+03
 4.6948676E+00  3.9275620E+03
 4.6979108E+00  3.8774866E+03
 4.7009544E+00  3.8156431E+03
 4.7039976E+00  3.7941802E+03
 4.7070413E+00  3.8157854E+03
 4.7100844E+00  3.8178020E+03
 4.7131281E+00  3.8156328E+03
 4.7161713E+00  3.7930823E+03
 4.7192144E+00  3.8039724E+03
 4.7222581E+00  3.7982720E+03
 4.7253013E+00  3.7690549E+03
 4.7283449E+00  3.7601182E+03
 4.7313881E+00  3.6990684E+03
 4.7344317E+00  3.6853333E+03
 4.7374749E+00  3.7204768E+03
 4.7405186E+00  3.7087715E+03
 4.7435617E+00  3.7090874E+03
 4.7466049E+00  3.6619497E+03
 4.7496486E+00  3.6463770E+03
 4.7526917E+00  3.6497495E+03
 4.7557354E+00  3.6069722E+03
 4.7587786E+00  3.6065535E+03
 4.7618222E+00  3.5930144E+03
 4.7648654E+00  3.5983430E+03
 4.7679086E+00  3.5846982E+03
 4.7709522E+00  3.5215471E+03
 4.7739954E+00  3.5048320E+03
 4.7770391E+00  3.5060913E+03
 4.7800822E+00  3.5376870E+03
 4.7831259E+00  3.5266936E+03
 4.7861691E+00  3.4721448E+03
 4.7892127E+00  3.4476907E+03
 4.7922559E+00  3.4348513E+03
 4.7952991E+00  3.4639106E+03
 4.7983427E+00  3.4832864E+03
 4.8013859E+00  3.4623560E+03
 4.8044295E+00  3.4314475E+03
 4.8074727E+00  3.4196472E+03
 4.8105164E+00  3.3892839E+03
 4.8135595E+00  3.3338284E+03
 4.8166027E+00  3.2942910E+03
 4.8196464E+00  3.3056560E+03
 4.8226895E+00  3.3094475E+03
 4.8257332E+00  3.3150869E+03
 4.8287764E+00  3.3138577E+03
 4.8318200E+00  3.2767944E+03
 4.8348632E+00  3.2355417E+03
 4.8379068E+00  3.2347227E+03
 4.8409500E+00  3.2567405E+03
 4.8439932E+00  3.2611133E+03
 4.8470368E+00  3.2277449E+03
 4.8500800E+00  3.1973093E+03
 4.8531237E+00  3.2162302E+03
 4.8561668E+00  3.2087554E+03
 4.8592105E+00  3.2025422E+03
 4.8622537E+00  3.2200942E+03
 4.8652968E+00  3.2288711E+03
 4.8683405E+00  3.2145569E+03
 4.8713837E+00  3.1979006E+03
 4.8744273E+00  3.1887334E+03
 4.8774705E+00  3.1507959E+03
 4.8805141E+00  3.1719023E+03
 4.8835573E+00  3.1726375E+03
 4.8866010E+00  3.1466147E+03
 4.8896441E+00  3.1452495E+03
 4.8926873E+00  3.1289937E+03
 4.8957310E+00  3.1033237E+03
 4.8987741E+00  3.0515374E+03
 4.9018178E+00  3.0073335E+03
 4.9048610E+00  3.0047605E+03
 4.9079046E+00  2.9587288E+03
 4.9109478E+00  2.9644094E+03
 4.9139910E+00  2.9618750E+03
 4.9170346E+00  2.9229282E+03
 4.9200778E+00  2.9183108E+03
 4.9231215E+00  2.9053132E+03
 4.9261646E+00  2.8681448E+03
 4.9292083E+00  2.8697500E+03
 4.9322515E+00  2.8883828E+03
 4.9352946E+00  2.8738423E+03
 4.9383383E+00  2.8455403E+03
 4.9413815E+00  2.8068542E+03
 4.9444251E+00  2.8345273E+03
 4.9474683E+00  2.8553276E+03
 4.9505119E+00  2.8501772E+03
 4.9535551E+00  2.8507666E+03
 4.9565988E+00  2.7919500E+03
 4.9596419E+00  2.7515793E+03
 4.9626851E+00  2.7729343E+03
 4.9657288E+00  2.7743647E+03
 4.9687719E+00  2.7811370E+03
 4.9718156E+00  2.8013625E+03
 4.9748588E+00  2.7670366E+03
 4.9779024E+00  2.7429900E+03
 4.9809456E+00  2.7395496E+03
 4.9839888E+00  2.7501228E+03
 4.9870324E+00  2.7285669E+03
 4.9900756E+00  2.7034890E+03
 4.9931192E+00  2.7418608E+03
 4.9961624E+00  2.7307373E+03
 4.9992061E+00  2.6910579E+03
 5.0022492E+00  2.6860061E+03
 5.0052929E+00  2.7043376E+03
 5.0083361E+00  2.7022974E+03
 5.0113792E+00  2.6730547E+03
 5.0144229E+00  2.6322847E+03
 5.0174661E+00  2.6105481E+03
 5.0205097E+00  2.6279739E+03
 5.0235529E+00  2.6430483E+03
 5.0265965E+00  2.6296782E+03
 5.0296397E+00  2.5925090E+03
 5.0326829E+00  2.5546072E+03
 5.0357265E+00  2.5770288E+03
 5.0387697E+00  2.6355684E+03
 5.0418134E+00  2.6228591E+03
 5.0448565E+00  2.6307483E+03
 5.0479002E+00  2.6075505E+03
 5.0509434E+00  2.5763652E+03
 5.0539870E+00  2.5829094E+03
 5.0570302E+00  2.5918848E+03
 5.0600734E+00  2.6051094E+03
 5.0631170E+00  2.5672017E+03
 5.0661602E+00  2.5549988E+03
 5.0692039E+00  2.5639316E+03
 5.0722470E+00  2.5700437E+03
