C:\Users\geste_000\Documents\MatLab Analysis\PSU\(111) Dense\clamped files\355.t
2-Theta Angle (Degrees)
Intensity
       1500
 5.1021564E-01  1.1622236E+03
 5.1325899E-01  9.6145996E+02
 5.1630241E-01  9.6104620E+02
 5.1934576E-01  9.9123761E+02
 5.2238917E-01  9.6814941E+02
 5.2543253E-01  9.6649365E+02
 5.2847594E-01  1.0716190E+03
 5.3151929E-01  1.0554324E+03
 5.3456271E-01  1.0105786E+03
 5.3760606E-01  9.5536658E+02
 5.4064947E-01  8.8732019E+02
 5.4369283E-01  8.9979974E+02
 5.4673624E-01  9.9194415E+02
 5.4977959E-01  1.1055450E+03
 5.5282301E-01  9.6197314E+02
 5.5586636E-01  9.0500500E+02
 5.5890977E-01  9.6669843E+02
 5.6195313E-01  9.5420514E+02
 5.6499654E-01  9.1351019E+02
 5.6803989E-01  9.9818384E+02
 5.7108331E-01  1.0767673E+03
 5.7412666E-01  1.0566414E+03
 5.7717007E-01  1.0574280E+03
 5.8021343E-01  1.0655929E+03
 5.8325684E-01  1.0109391E+03
 5.8630019E-01  9.6562738E+02
 5.8934361E-01  8.7806372E+02
 5.9238696E-01  8.9042297E+02
 5.9543037E-01  9.4241223E+02
 5.9847373E-01  9.6551550E+02
 6.0151714E-01  9.7163098E+02
 6.0456049E-01  9.5658209E+02
 6.0760391E-01  9.8405347E+02
 6.1064726E-01  1.0640431E+03
 6.1369067E-01  1.0020413E+03
 6.1673403E-01  1.0113946E+03
 6.1977744E-01  1.1008961E+03
 6.2282079E-01  1.0462889E+03
 6.2586421E-01  9.3920520E+02
 6.2890756E-01  9.5227765E+02
 6.3195097E-01  1.0069760E+03
 6.3499433E-01  1.1185526E+03
 6.3803774E-01  1.0774076E+03
 6.4108109E-01  9.3116241E+02
 6.4412451E-01  9.4614746E+02
 6.4716786E-01  9.6523706E+02
 6.5021127E-01  9.8901831E+02
 6.5325463E-01  9.8518353E+02
 6.5629804E-01  9.3088531E+02
 6.5934139E-01  9.5944183E+02
 6.6238481E-01  1.0208279E+03
 6.6542816E-01  1.1040197E+03
 6.6847157E-01  1.0784376E+03
 6.7151493E-01  9.6103900E+02
 6.7455834E-01  9.8451746E+02
 6.7760170E-01  9.7945410E+02
 6.8064511E-01  9.3370569E+02
 6.8368846E-01  9.8924097E+02
 6.8673187E-01  1.0813291E+03
 6.8977523E-01  1.0344520E+03
 6.9281864E-01  1.0027021E+03
 6.9586200E-01  1.0500936E+03
 6.9890541E-01  1.0303757E+03
 7.0194876E-01  9.7510956E+02
 7.0499218E-01  9.8020294E+02
 7.0803553E-01  1.0039803E+03
 7.1107894E-01  1.0338771E+03
 7.1412230E-01  1.0104542E+03
 7.1716571E-01  9.6580426E+02
 7.2020906E-01  1.0149390E+03
 7.2325248E-01  1.0579532E+03
 7.2629583E-01  9.7762463E+02
 7.2933924E-01  9.4315411E+02
 7.3238260E-01  1.0197443E+03
 7.3542601E-01  1.0415320E+03
 7.3846936E-01  1.0196075E+03
 7.4151278E-01  1.0339070E+03
 7.4455613E-01  1.0250271E+03
 7.4759954E-01  9.6253528E+02
 7.5064290E-01  9.9345087E+02
 7.5368631E-01  1.0566189E+03
 7.5672966E-01  9.6235730E+02
 7.5977308E-01  9.1631018E+02
 7.6281643E-01  9.8445428E+02
 7.6585984E-01  1.0328385E+03
 7.6890320E-01  1.0788262E+03
 7.7194661E-01  1.0763580E+03
 7.7498996E-01  1.0420520E+03
 7.7803338E-01  1.0213430E+03
 7.8107673E-01  1.0308627E+03
 7.8412014E-01  1.0158073E+03
 7.8716350E-01  1.0304093E+03
 7.9020691E-01  1.0186221E+03
 7.9325026E-01  9.0875787E+02
 7.9629368E-01  9.6812158E+02
 7.9933703E-01  1.0823640E+03
 8.0238044E-01  1.0437675E+03
 8.0542380E-01  1.0140115E+03
 8.0846721E-01  8.9836212E+02
 8.1151056E-01  8.9004193E+02
 8.1455398E-01  9.5973730E+02
 8.1759733E-01  1.0864900E+03
 8.2064074E-01  1.1196704E+03
 8.2368410E-01  1.1146906E+03
 8.2672751E-01  1.1035046E+03
 8.2977086E-01  1.0201109E+03
 8.3281428E-01  1.0457888E+03
 8.3585763E-01  1.0704087E+03
 8.3890104E-01  1.0394768E+03
 8.4194440E-01  1.0132953E+03
 8.4498781E-01  1.0259795E+03
 8.4803116E-01  1.0766195E+03
 8.5107458E-01  1.0762195E+03
 8.5411793E-01  1.0253690E+03
 8.5716134E-01  1.0089260E+03
 8.6020470E-01  1.0375872E+03
 8.6324811E-01  1.0268124E+03
 8.6629146E-01  1.0004026E+03
 8.6933488E-01  1.0323495E+03
 8.7237823E-01  1.0515741E+03
 8.7542164E-01  1.0101713E+03
 8.7846500E-01  9.8642212E+02
 8.8150841E-01  9.9555829E+02
 8.8455176E-01  1.0632684E+03
 8.8759518E-01  1.0328428E+03
 8.9063853E-01  1.0529742E+03
 8.9368194E-01  1.1105608E+03
 8.9672530E-01  1.0981294E+03
 8.9976871E-01  1.0751239E+03
 9.0281206E-01  1.0123830E+03
 9.0585548E-01  9.3064948E+02
 9.0889883E-01  9.3355212E+02
 9.1194224E-01  9.8434186E+02
 9.1498560E-01  1.0058051E+03
 9.1802901E-01  1.0239877E+03
 9.2107236E-01  1.0610210E+03
 9.2411578E-01  1.1077993E+03
 9.2715913E-01  1.1191404E+03
 9.3020254E-01  1.1298412E+03
 9.3324590E-01  1.1078619E+03
 9.3628931E-01  1.0062010E+03
 9.3933266E-01  1.0462903E+03
 9.4237608E-01  1.1265060E+03
 9.4541943E-01  1.0501262E+03
 9.4846284E-01  1.0580345E+03
 9.5150620E-01  1.0756122E+03
 9.5454961E-01  1.0321344E+03
 9.5759296E-01  1.0410952E+03
 9.6063638E-01  1.0450671E+03
 9.6367973E-01  1.0258463E+03
 9.6672314E-01  1.0772050E+03
 9.6976650E-01  1.0956936E+03
 9.7280991E-01  1.0860610E+03
 9.7585326E-01  1.0379357E+03
 9.7889668E-01  1.0448573E+03
 9.8194003E-01  1.0870472E+03
 9.8498344E-01  1.0788643E+03
 9.8802680E-01  1.1238153E+03
 9.9107021E-01  1.1093331E+03
 9.9411356E-01  1.1225798E+03
 9.9715698E-01  1.1853522E+03
 1.0002004E+00  1.1204490E+03
 1.0032437E+00  1.1341863E+03
 1.0062871E+00  1.1088866E+03
 1.0093305E+00  1.0529279E+03
 1.0123739E+00  1.1052843E+03
 1.0154172E+00  1.0766932E+03
 1.0184606E+00  9.9785028E+02
 1.0215040E+00  1.0102472E+03
 1.0245475E+00  1.0283817E+03
 1.0275908E+00  1.0183061E+03
 1.0306342E+00  9.8347614E+02
 1.0336776E+00  1.0452017E+03
 1.0367210E+00  1.1396117E+03
 1.0397643E+00  1.1535913E+03
 1.0428077E+00  1.1344340E+03
 1.0458511E+00  1.0758634E+03
 1.0488945E+00  1.0631218E+03
 1.0519378E+00  1.1067367E+03
 1.0549812E+00  1.1048540E+03
 1.0580246E+00  1.0462646E+03
 1.0610681E+00  1.0222836E+03
 1.0641114E+00  1.0324924E+03
 1.0671548E+00  1.1135848E+03
 1.0701982E+00  1.1179307E+03
 1.0732416E+00  1.0597888E+03
 1.0762849E+00  1.0155271E+03
 1.0793283E+00  9.9552838E+02
 1.0823717E+00  1.0373123E+03
 1.0854151E+00  1.0637953E+03
 1.0884584E+00  1.0540864E+03
 1.0915018E+00  1.0971608E+03
 1.0945452E+00  1.1617224E+03
 1.0975887E+00  1.0860293E+03
 1.1006320E+00  1.0198133E+03
 1.1036754E+00  1.0041494E+03
 1.1067188E+00  1.0583936E+03
 1.1097622E+00  1.0721989E+03
 1.1128055E+00  1.0632275E+03
 1.1158489E+00  1.0973160E+03
 1.1188923E+00  1.1722294E+03
 1.1219357E+00  1.1660385E+03
 1.1249790E+00  1.1403467E+03
 1.1280224E+00  1.1637467E+03
 1.1310658E+00  1.1651089E+03
 1.1341093E+00  1.1247003E+03
 1.1371526E+00  1.0908972E+03
 1.1401960E+00  1.0720214E+03
 1.1432394E+00  1.1021603E+03
 1.1462828E+00  1.1090439E+03
 1.1493261E+00  1.1203960E+03
 1.1523695E+00  1.1295103E+03
 1.1554129E+00  1.1097604E+03
 1.1584562E+00  1.1104249E+03
 1.1614996E+00  1.1374117E+03
 1.1645430E+00  1.1402861E+03
 1.1675864E+00  1.1415739E+03
 1.1706297E+00  1.1394076E+03
 1.1736732E+00  1.1280718E+03
 1.1767166E+00  1.0831975E+03
 1.1797600E+00  1.1007402E+03
 1.1828033E+00  1.0936672E+03
 1.1858467E+00  1.1055443E+03
 1.1888901E+00  1.1765829E+03
 1.1919335E+00  1.1202789E+03
 1.1949768E+00  1.0164572E+03
 1.1980202E+00  1.0623306E+03
 1.2010636E+00  1.1496560E+03
 1.2041070E+00  1.1609993E+03
 1.2071503E+00  1.1697916E+03
 1.2101938E+00  1.1563977E+03
 1.2132372E+00  1.0850906E+03
 1.2162806E+00  1.1099838E+03
 1.2193239E+00  1.0827877E+03
 1.2223673E+00  1.0795315E+03
 1.2254107E+00  1.1359850E+03
 1.2284541E+00  1.0730033E+03
 1.2314974E+00  1.0564989E+03
 1.2345408E+00  1.1368842E+03
 1.2375842E+00  1.1421935E+03
 1.2406276E+00  1.1156597E+03
 1.2436709E+00  1.1236420E+03
 1.2467144E+00  1.0940558E+03
 1.2497578E+00  1.0261611E+03
 1.2528012E+00  1.0216561E+03
 1.2558445E+00  1.0810029E+03
 1.2588879E+00  1.1125781E+03
 1.2619313E+00  1.1059197E+03
 1.2649747E+00  1.1442023E+03
 1.2680180E+00  1.1664910E+03
 1.2710614E+00  1.0838969E+03
 1.2741048E+00  1.0678724E+03
 1.2771482E+00  1.1037991E+03
 1.2801915E+00  1.1579083E+03
 1.2832350E+00  1.1689113E+03
 1.2862784E+00  1.1723876E+03
 1.2893218E+00  1.1563436E+03
 1.2923651E+00  1.1445033E+03
 1.2954085E+00  1.1761504E+03
 1.2984519E+00  1.2213147E+03
 1.3014953E+00  1.2345718E+03
 1.3045386E+00  1.1624768E+03
 1.3075820E+00  1.1629819E+03
 1.3106254E+00  1.2341434E+03
 1.3136688E+00  1.2213013E+03
 1.3167121E+00  1.1236694E+03
 1.3197556E+00  1.0659465E+03
 1.3227990E+00  1.0544221E+03
 1.3258424E+00  1.0906128E+03
 1.3288857E+00  1.0974514E+03
 1.3319291E+00  1.1094910E+03
 1.3349725E+00  1.1405100E+03
 1.3380159E+00  1.1438949E+03
 1.3410592E+00  1.1576656E+03
 1.3441026E+00  1.1661918E+03
 1.3471460E+00  1.1049718E+03
 1.3501894E+00  1.1157111E+03
 1.3532327E+00  1.1380571E+03
 1.3562762E+00  1.1794739E+03
 1.3593196E+00  1.2162406E+03
 1.3623630E+00  1.1937651E+03
 1.3654063E+00  1.1583247E+03
 1.3684497E+00  1.1139907E+03
 1.3714931E+00  1.1158979E+03
 1.3745365E+00  1.1464707E+03
 1.3775798E+00  1.1769882E+03
 1.3806232E+00  1.1164775E+03
 1.3836666E+00  1.0519146E+03
 1.3867100E+00  1.1436508E+03
 1.3897533E+00  1.1970156E+03
 1.3927968E+00  1.2019419E+03
 1.3958402E+00  1.2101926E+03
 1.3988836E+00  1.1848235E+03
 1.4019269E+00  1.1920935E+03
 1.4049703E+00  1.1685168E+03
 1.4080137E+00  1.1980626E+03
 1.4110571E+00  1.2418253E+03
 1.4141004E+00  1.2087838E+03
 1.4171438E+00  1.1414668E+03
 1.4201872E+00  1.1323282E+03
 1.4232306E+00  1.1913939E+03
 1.4262739E+00  1.2214961E+03
 1.4293174E+00  1.2711138E+03
 1.4323608E+00  1.1783141E+03
 1.4354042E+00  1.1590472E+03
 1.4384475E+00  1.2116194E+03
 1.4414909E+00  1.1657194E+03
 1.4445343E+00  1.1610247E+03
 1.4475777E+00  1.1540819E+03
 1.4506210E+00  1.1418351E+03
 1.4536644E+00  1.2016873E+03
 1.4567078E+00  1.1995784E+03
 1.4597512E+00  1.1670397E+03
 1.4627945E+00  1.2379895E+03
 1.4658380E+00  1.3109880E+03
 1.4688814E+00  1.2333080E+03
 1.4719248E+00  1.1816489E+03
 1.4749681E+00  1.1754431E+03
 1.4780115E+00  1.2238658E+03
 1.4810549E+00  1.2506963E+03
 1.4840983E+00  1.2312955E+03
 1.4871416E+00  1.2063468E+03
 1.4901850E+00  1.1764205E+03
 1.4932284E+00  1.2057800E+03
 1.4962718E+00  1.2633688E+03
 1.4993151E+00  1.2690588E+03
 1.5023586E+00  1.2796295E+03
 1.5054020E+00  1.3286118E+03
 1.5084454E+00  1.3551487E+03
 1.5114887E+00  1.3603818E+03
 1.5145321E+00  1.3766796E+03
 1.5175755E+00  1.3870809E+03
 1.5206189E+00  1.4138624E+03
 1.5236622E+00  1.4185018E+03
 1.5267056E+00  1.4851167E+03
 1.5297490E+00  1.5346406E+03
 1.5327924E+00  1.5371322E+03
 1.5358357E+00  1.5800659E+03
 1.5388792E+00  1.5817372E+03
 1.5419226E+00  1.4895762E+03
 1.5449660E+00  1.4440660E+03
 1.5480093E+00  1.4330973E+03
 1.5510527E+00  1.3598116E+03
 1.5540961E+00  1.3186827E+03
 1.5571395E+00  1.3103457E+03
 1.5601828E+00  1.2718271E+03
 1.5632262E+00  1.2335033E+03
 1.5662696E+00  1.2253365E+03
 1.5693130E+00  1.2330637E+03
 1.5723563E+00  1.2328303E+03
 1.5753998E+00  1.2689999E+03
 1.5784432E+00  1.2891628E+03
 1.5814866E+00  1.2767970E+03
 1.5845299E+00  1.2494437E+03
 1.5875733E+00  1.1800026E+03
 1.5906167E+00  1.1633010E+03
 1.5936601E+00  1.2172113E+03
 1.5967034E+00  1.2363545E+03
 1.5997468E+00  1.2107227E+03
 1.6027902E+00  1.1851503E+03
 1.6058336E+00  1.1630575E+03
 1.6088769E+00  1.1844045E+03
 1.6119204E+00  1.2174773E+03
 1.6149638E+00  1.1943993E+03
 1.6180072E+00  1.1732683E+03
 1.6210505E+00  1.1857461E+03
 1.6240939E+00  1.2080087E+03
 1.6271373E+00  1.2186204E+03
 1.6301807E+00  1.2488328E+03
 1.6332240E+00  1.2883439E+03
 1.6362674E+00  1.2800530E+03
 1.6393108E+00  1.3114420E+03
 1.6423542E+00  1.2891873E+03
 1.6453975E+00  1.2057089E+03
 1.6484410E+00  1.1862648E+03
 1.6514844E+00  1.1869615E+03
 1.6545278E+00  1.1446184E+03
 1.6575711E+00  1.1533741E+03
 1.6606145E+00  1.1707622E+03
 1.6636579E+00  1.1696898E+03
 1.6667013E+00  1.1900315E+03
 1.6697446E+00  1.2001127E+03
 1.6727880E+00  1.1994523E+03
 1.6758314E+00  1.2349962E+03
 1.6788749E+00  1.2902811E+03
 1.6819181E+00  1.2674215E+03
 1.6849616E+00  1.2147057E+03
 1.6880050E+00  1.1998004E+03
 1.6910484E+00  1.2065010E+03
 1.6940917E+00  1.1921497E+03
 1.6971351E+00  1.1956331E+03
 1.7001785E+00  1.2572079E+03
 1.7032219E+00  1.3204318E+03
 1.7062652E+00  1.2481473E+03
 1.7093086E+00  1.1877860E+03
 1.7123520E+00  1.2338906E+03
 1.7153955E+00  1.2456666E+03
 1.7184387E+00  1.2648762E+03
 1.7214822E+00  1.2497531E+03
 1.7245256E+00  1.1944806E+03
 1.7275690E+00  1.2202478E+03
 1.7306123E+00  1.2417025E+03
 1.7336557E+00  1.1987045E+03
 1.7366991E+00  1.1933927E+03
 1.7397425E+00  1.1915270E+03
 1.7427858E+00  1.2157131E+03
 1.7458292E+00  1.2045248E+03
 1.7488726E+00  1.1941082E+03
 1.7519161E+00  1.2050638E+03
 1.7549593E+00  1.1668793E+03
 1.7580028E+00  1.1259512E+03
 1.7610462E+00  1.1013070E+03
 1.7640896E+00  1.1666404E+03
 1.7671329E+00  1.2164607E+03
 1.7701763E+00  1.2497163E+03
 1.7732197E+00  1.2593123E+03
 1.7762631E+00  1.2935160E+03
 1.7793064E+00  1.2086260E+03
 1.7823498E+00  1.2041095E+03
 1.7853932E+00  1.2527806E+03
 1.7884367E+00  1.2747220E+03
 1.7914799E+00  1.2997069E+03
 1.7945234E+00  1.2121344E+03
 1.7975668E+00  1.1395078E+03
 1.8006102E+00  1.1898820E+03
 1.8036535E+00  1.2464753E+03
 1.8066969E+00  1.2415505E+03
 1.8097403E+00  1.2115280E+03
 1.8127837E+00  1.2531747E+03
 1.8158270E+00  1.3185118E+03
 1.8188704E+00  1.2969705E+03
 1.8219138E+00  1.3235074E+03
 1.8249573E+00  1.3626517E+03
 1.8280005E+00  1.3231483E+03
 1.8310440E+00  1.2563000E+03
 1.8340874E+00  1.2502013E+03
 1.8371308E+00  1.2206294E+03
 1.8401741E+00  1.2194888E+03
 1.8432175E+00  1.2497316E+03
 1.8462609E+00  1.2414598E+03
 1.8493043E+00  1.2731633E+03
 1.8523476E+00  1.3043048E+03
 1.8553910E+00  1.2424507E+03
 1.8584344E+00  1.2249243E+03
 1.8614779E+00  1.3374991E+03
 1.8645211E+00  1.2969564E+03
 1.8675646E+00  1.1862992E+03
 1.8706080E+00  1.2025660E+03
 1.8736514E+00  1.2078859E+03
 1.8766947E+00  1.2147452E+03
 1.8797381E+00  1.2532593E+03
 1.8827815E+00  1.2675638E+03
 1.8858249E+00  1.2669659E+03
 1.8888682E+00  1.2327454E+03
 1.8919116E+00  1.1623733E+03
 1.8949550E+00  1.2044652E+03
 1.8979985E+00  1.2404352E+03
 1.9010417E+00  1.2717897E+03
 1.9040852E+00  1.2716515E+03
 1.9071286E+00  1.1982345E+03
 1.9101719E+00  1.2303146E+03
 1.9132153E+00  1.2889320E+03
 1.9162587E+00  1.2460724E+03
 1.9193021E+00  1.2261461E+03
 1.9223454E+00  1.2630570E+03
 1.9253888E+00  1.2564772E+03
 1.9284322E+00  1.2468997E+03
 1.9314756E+00  1.2987646E+03
 1.9345189E+00  1.2936093E+03
 1.9375623E+00  1.2535116E+03
 1.9406058E+00  1.2637866E+03
 1.9436492E+00  1.2445701E+03
 1.9466925E+00  1.2194862E+03
 1.9497359E+00  1.1981687E+03
 1.9527793E+00  1.2621232E+03
 1.9558227E+00  1.2691876E+03
 1.9588660E+00  1.1688257E+03
 1.9619094E+00  1.1656923E+03
 1.9649528E+00  1.2183071E+03
 1.9679962E+00  1.2563979E+03
 1.9710395E+00  1.2476503E+03
 1.9740829E+00  1.2542878E+03
 1.9771264E+00  1.2442343E+03
 1.9801698E+00  1.2258796E+03
 1.9832131E+00  1.2309609E+03
 1.9862565E+00  1.2367516E+03
 1.9892999E+00  1.3229152E+03
 1.9923433E+00  1.3672789E+03
 1.9953866E+00  1.3208663E+03
 1.9984300E+00  1.2710430E+03
 2.0014734E+00  1.2550435E+03
 2.0045168E+00  1.2494174E+03
 2.0075603E+00  1.2869830E+03
 2.0106037E+00  1.2953058E+03
 2.0136468E+00  1.3106259E+03
 2.0166903E+00  1.3330538E+03
 2.0197337E+00  1.3220004E+03
 2.0227771E+00  1.3008350E+03
 2.0258205E+00  1.3012993E+03
 2.0288639E+00  1.2945140E+03
 2.0319073E+00  1.2822911E+03
 2.0349507E+00  1.3079558E+03
 2.0379939E+00  1.3211329E+03
 2.0410373E+00  1.2978523E+03
 2.0440807E+00  1.2459304E+03
 2.0471241E+00  1.2557979E+03
 2.0501676E+00  1.2878711E+03
 2.0532110E+00  1.2991373E+03
 2.0562544E+00  1.3184408E+03
 2.0592978E+00  1.2568503E+03
 2.0623410E+00  1.2445875E+03
 2.0653844E+00  1.2914208E+03
 2.0684278E+00  1.3515077E+03
 2.0714712E+00  1.3953953E+03
 2.0745146E+00  1.3360530E+03
 2.0775580E+00  1.2812245E+03
 2.0806015E+00  1.2770461E+03
 2.0836449E+00  1.3083715E+03
 2.0866880E+00  1.3302955E+03
 2.0897315E+00  1.3489379E+03
 2.0927749E+00  1.3456124E+03
 2.0958183E+00  1.3165939E+03
 2.0988617E+00  1.3161013E+03
 2.1019051E+00  1.3008234E+03
 2.1049485E+00  1.3126737E+03
 2.1079919E+00  1.3570883E+03
 2.1110351E+00  1.3604056E+03
 2.1140785E+00  1.3650199E+03
 2.1171219E+00  1.3748088E+03
 2.1201653E+00  1.3697338E+03
 2.1232088E+00  1.4150023E+03
 2.1262522E+00  1.4711925E+03
 2.1292956E+00  1.5159661E+03
 2.1323390E+00  1.5999153E+03
 2.1353822E+00  1.6073333E+03
 2.1384256E+00  1.6724467E+03
 2.1414690E+00  1.7958027E+03
 2.1445124E+00  1.9087977E+03
 2.1475558E+00  2.0283513E+03
 2.1505992E+00  2.0669016E+03
 2.1536427E+00  2.0701184E+03
 2.1566861E+00  2.1037969E+03
 2.1597292E+00  2.2016072E+03
 2.1627727E+00  2.2097151E+03
 2.1658161E+00  2.2060190E+03
 2.1688595E+00  2.2006470E+03
 2.1719029E+00  2.1074597E+03
 2.1749463E+00  2.0556770E+03
 2.1779897E+00  2.0060251E+03
 2.1810331E+00  1.9649694E+03
 2.1840763E+00  1.9468702E+03
 2.1871197E+00  1.8878043E+03
 2.1901631E+00  1.7629703E+03
 2.1932065E+00  1.6318802E+03
 2.1962500E+00  1.5265260E+03
 2.1992934E+00  1.4647036E+03
 2.2023368E+00  1.4742965E+03
 2.2053802E+00  1.4351001E+03
 2.2084234E+00  1.3718208E+03
 2.2114668E+00  1.3680675E+03
 2.2145102E+00  1.3826636E+03
 2.2175536E+00  1.3452789E+03
 2.2205970E+00  1.3689393E+03
 2.2236404E+00  1.4047272E+03
 2.2266839E+00  1.4401581E+03
 2.2297273E+00  1.4470391E+03
 2.2327704E+00  1.3730104E+03
 2.2358139E+00  1.3479138E+03
 2.2388573E+00  1.3561747E+03
 2.2419007E+00  1.3517146E+03
 2.2449441E+00  1.3497756E+03
 2.2479875E+00  1.3515917E+03
 2.2510309E+00  1.3838152E+03
 2.2540743E+00  1.4101643E+03
 2.2571175E+00  1.3701036E+03
 2.2601609E+00  1.3321202E+03
 2.2632043E+00  1.3352147E+03
 2.2662477E+00  1.3994618E+03
 2.2692912E+00  1.4567991E+03
 2.2723346E+00  1.4090977E+03
 2.2753780E+00  1.3959850E+03
 2.2784214E+00  1.3659358E+03
 2.2814646E+00  1.3702416E+03
 2.2845080E+00  1.4392959E+03
 2.2875514E+00  1.4171692E+03
 2.2905948E+00  1.4063226E+03
 2.2936382E+00  1.4150195E+03
 2.2966816E+00  1.4213326E+03
 2.2997251E+00  1.4404323E+03
 2.3027685E+00  1.4317881E+03
 2.3058116E+00  1.3921544E+03
 2.3088551E+00  1.4261779E+03
 2.3118985E+00  1.4343982E+03
 2.3149419E+00  1.4037480E+03
 2.3179853E+00  1.4134758E+03
 2.3210287E+00  1.4038555E+03
 2.3240721E+00  1.4047325E+03
 2.3271155E+00  1.4198508E+03
 2.3301587E+00  1.3748417E+03
 2.3332021E+00  1.3793843E+03
 2.3362455E+00  1.3601873E+03
 2.3392889E+00  1.3419915E+03
 2.3423324E+00  1.3480278E+03
 2.3453758E+00  1.3757733E+03
 2.3484192E+00  1.4162448E+03
 2.3514626E+00  1.3910203E+03
 2.3545058E+00  1.4098431E+03
 2.3575492E+00  1.4398781E+03
 2.3605926E+00  1.4378469E+03
 2.3636360E+00  1.4560313E+03
 2.3666794E+00  1.4627393E+03
 2.3697228E+00  1.4866276E+03
 2.3727663E+00  1.4841846E+03
 2.3758097E+00  1.4912059E+03
 2.3788528E+00  1.4970062E+03
 2.3818963E+00  1.4978514E+03
 2.3849397E+00  1.5156516E+03
 2.3879831E+00  1.5310017E+03
 2.3910265E+00  1.5325803E+03
 2.3940699E+00  1.5089799E+03
 2.3971133E+00  1.5097131E+03
 2.4001567E+00  1.4842686E+03
 2.4031999E+00  1.5039001E+03
 2.4062433E+00  1.5191509E+03
 2.4092867E+00  1.4655276E+03
 2.4123302E+00  1.4425707E+03
 2.4153736E+00  1.4402361E+03
 2.4184170E+00  1.4071815E+03
 2.4214604E+00  1.4031338E+03
 2.4245038E+00  1.4554673E+03
 2.4275470E+00  1.4856632E+03
 2.4305904E+00  1.5355328E+03
 2.4336338E+00  1.5580232E+03
 2.4366772E+00  1.5848732E+03
 2.4397206E+00  1.6096051E+03
 2.4427640E+00  1.6074321E+03
 2.4458075E+00  1.5759270E+03
 2.4488509E+00  1.5489709E+03
 2.4518940E+00  1.5489460E+03
 2.4549375E+00  1.5375212E+03
 2.4579809E+00  1.5410267E+03
 2.4610243E+00  1.5548337E+03
 2.4640677E+00  1.5639287E+03
 2.4671111E+00  1.5786567E+03
 2.4701545E+00  1.5805022E+03
 2.4731979E+00  1.5985632E+03
 2.4762411E+00  1.6000999E+03
 2.4792845E+00  1.5952479E+03
 2.4823279E+00  1.6050171E+03
 2.4853714E+00  1.5791112E+03
 2.4884148E+00  1.5666454E+03
 2.4914582E+00  1.6378781E+03
 2.4945016E+00  1.6656672E+03
 2.4975450E+00  1.6437732E+03
 2.5005882E+00  1.7065465E+03
 2.5036316E+00  1.7276555E+03
 2.5066750E+00  1.6964473E+03
 2.5097184E+00  1.6975785E+03
 2.5127618E+00  1.7310520E+03
 2.5158052E+00  1.7387747E+03
 2.5188487E+00  1.7366550E+03
 2.5218921E+00  1.7603478E+03
 2.5249352E+00  1.7802563E+03
 2.5279787E+00  1.8173491E+03
 2.5310221E+00  1.8337573E+03
 2.5340655E+00  1.8157679E+03
 2.5371089E+00  1.8313101E+03
 2.5401523E+00  1.8368011E+03
 2.5431957E+00  1.8598242E+03
 2.5462391E+00  1.8940449E+03
 2.5492823E+00  1.9336580E+03
 2.5523257E+00  1.9576359E+03
 2.5553691E+00  1.9856836E+03
 2.5584126E+00  1.9923987E+03
 2.5614560E+00  2.0027722E+03
 2.5644994E+00  2.0620603E+03
 2.5675428E+00  2.0760012E+03
 2.5705862E+00  2.1448115E+03
 2.5736294E+00  2.2187954E+03
 2.5766728E+00  2.2172178E+03
 2.5797162E+00  2.2728982E+03
 2.5827596E+00  2.3502605E+03
 2.5858030E+00  2.3815872E+03
 2.5888464E+00  2.4500439E+03
 2.5918899E+00  2.5504387E+03
 2.5949333E+00  2.6160696E+03
 2.5979764E+00  2.7372446E+03
 2.6010199E+00  2.8740740E+03
 2.6040633E+00  2.9813267E+03
 2.6071067E+00  3.1338904E+03
 2.6101501E+00  3.3580955E+03
 2.6131935E+00  3.6537463E+03
 2.6162369E+00  3.9764756E+03
 2.6192803E+00  4.3950928E+03
 2.6223235E+00  4.9983975E+03
 2.6253669E+00  5.7781260E+03
 2.6284103E+00  7.0813618E+03
 2.6314538E+00  8.7590684E+03
 2.6344972E+00  1.1417713E+04
 2.6375406E+00  1.5489738E+04
 2.6405840E+00  2.0699072E+04
 2.6436274E+00  2.8249217E+04
 2.6466706E+00  3.4717906E+04
 2.6497140E+00  4.0477336E+04
 2.6527574E+00  4.1751176E+04
 2.6558008E+00  3.9304914E+04
 2.6588442E+00  3.2950805E+04
 2.6618876E+00  2.6585811E+04
 2.6649311E+00  1.9822748E+04
 2.6679742E+00  1.5370340E+04
 2.6710176E+00  1.2014545E+04
 2.6740611E+00  9.9538125E+03
 2.6771045E+00  8.8609609E+03
 2.6801479E+00  8.0850293E+03
 2.6831913E+00  7.8723208E+03
 2.6862347E+00  7.8432651E+03
 2.6892781E+00  8.0334468E+03
 2.6923213E+00  8.2833896E+03
 2.6953647E+00  8.8251455E+03
 2.6984081E+00  9.6023828E+03
 2.7014515E+00  1.0621138E+04
 2.7044950E+00  1.2458641E+04
 2.7075384E+00  1.4691602E+04
 2.7105818E+00  1.8611262E+04
 2.7136252E+00  2.5614508E+04
 2.7166684E+00  3.6795199E+04
 2.7197118E+00  6.2954422E+04
 2.7227552E+00  1.0249902E+05
 2.7257986E+00  1.6981525E+05
 2.7288420E+00  2.3718352E+05
 2.7318854E+00  2.8022397E+05
 2.7349288E+00  2.6449741E+05
 2.7379723E+00  2.1052650E+05
 2.7410154E+00  1.3193855E+05
 2.7440588E+00  8.2345172E+04
 2.7471023E+00  4.8093090E+04
 2.7501457E+00  3.0630377E+04
 2.7531891E+00  2.1695271E+04
 2.7562325E+00  1.5906560E+04
 2.7592759E+00  1.2972572E+04
 2.7623193E+00  1.0778101E+04
 2.7653625E+00  9.3619785E+03
 2.7684059E+00  8.2791934E+03
 2.7714493E+00  7.2973853E+03
 2.7744927E+00  6.6676846E+03
 2.7775362E+00  6.1463452E+03
 2.7805796E+00  5.7085518E+03
 2.7836230E+00  5.3188999E+03
 2.7866664E+00  4.9460288E+03
 2.7897096E+00  4.6386362E+03
 2.7927530E+00  4.3073867E+03
 2.7957964E+00  4.0475947E+03
 2.7988398E+00  3.8290317E+03
 2.8018832E+00  3.6311316E+03
 2.8049266E+00  3.4929761E+03
 2.8079700E+00  3.3613530E+03
 2.8110135E+00  3.2017490E+03
 2.8140566E+00  3.0684675E+03
 2.8171000E+00  2.9684819E+03
 2.8201435E+00  2.9280137E+03
 2.8231869E+00  2.8407795E+03
 2.8262303E+00  2.7138506E+03
 2.8292737E+00  2.6290298E+03
 2.8323171E+00  2.5715542E+03
 2.8353605E+00  2.5146064E+03
 2.8384037E+00  2.4715825E+03
 2.8414471E+00  2.4379485E+03
 2.8444905E+00  2.4175417E+03
 2.8475339E+00  2.3930908E+03
 2.8505774E+00  2.3606658E+03
 2.8536208E+00  2.3001934E+03
 2.8566642E+00  2.2594712E+03
 2.8597076E+00  2.2051875E+03
 2.8627508E+00  2.1610198E+03
 2.8657942E+00  2.1090188E+03
 2.8688376E+00  2.0796040E+03
 2.8718810E+00  2.1007285E+03
 2.8749244E+00  2.0707930E+03
 2.8779678E+00  2.0089636E+03
 2.8810112E+00  2.0044828E+03
 2.8840547E+00  2.0185205E+03
 2.8870978E+00  2.0063691E+03
 2.8901412E+00  1.9807169E+03
 2.8931847E+00  1.9506877E+03
 2.8962281E+00  1.9032108E+03
 2.8992715E+00  1.8812076E+03
 2.9023149E+00  1.8900455E+03
 2.9053583E+00  1.8990388E+03
 2.9084017E+00  1.9015758E+03
 2.9114449E+00  1.8847985E+03
 2.9144883E+00  1.8517289E+03
 2.9175317E+00  1.7716091E+03
 2.9205751E+00  1.7736786E+03
 2.9236186E+00  1.8561930E+03
 2.9266620E+00  1.8346902E+03
 2.9297054E+00  1.7951178E+03
 2.9327488E+00  1.8169069E+03
 2.9357920E+00  1.8098190E+03
 2.9388354E+00  1.7802234E+03
 2.9418788E+00  1.8067648E+03
 2.9449222E+00  1.8375334E+03
 2.9479656E+00  1.8275709E+03
 2.9510090E+00  1.8004673E+03
 2.9540524E+00  1.7744600E+03
 2.9570959E+00  1.7719624E+03
 2.9601390E+00  1.7667896E+03
 2.9631824E+00  1.8270211E+03
 2.9662259E+00  1.8432913E+03
 2.9692693E+00  1.8257197E+03
 2.9723127E+00  1.7907423E+03
 2.9753561E+00  1.7685907E+03
 2.9783995E+00  1.7744968E+03
 2.9814429E+00  1.7478651E+03
 2.9844861E+00  1.7189167E+03
 2.9875295E+00  1.7115341E+03
 2.9905729E+00  1.7068945E+03
 2.9936163E+00  1.7688639E+03
 2.9966598E+00  1.8079839E+03
 2.9997032E+00  1.7741378E+03
 3.0027466E+00  1.7778887E+03
 3.0057900E+00  1.7833698E+03
 3.0088332E+00  1.8102560E+03
 3.0118766E+00  1.8393693E+03
 3.0149200E+00  1.7838719E+03
 3.0179634E+00  1.7860436E+03
 3.0210068E+00  1.7750101E+03
 3.0240502E+00  1.7598351E+03
 3.0270936E+00  1.8090673E+03
 3.0301371E+00  1.8119449E+03
 3.0331802E+00  1.8394758E+03
 3.0362236E+00  1.8994713E+03
 3.0392671E+00  1.8409280E+03
 3.0423105E+00  1.7938374E+03
 3.0453539E+00  1.7913812E+03
 3.0483973E+00  1.7829189E+03
 3.0514407E+00  1.7741173E+03
 3.0544841E+00  1.8102354E+03
 3.0575273E+00  1.8655623E+03
 3.0605707E+00  1.8453746E+03
 3.0636141E+00  1.8351892E+03
 3.0666575E+00  1.8408992E+03
 3.0697010E+00  1.8835353E+03
 3.0727444E+00  1.9131995E+03
 3.0757878E+00  1.9665576E+03
 3.0788312E+00  2.0521501E+03
 3.0818744E+00  2.0836807E+03
 3.0849178E+00  2.0936284E+03
 3.0879612E+00  2.0989790E+03
 3.0910046E+00  2.0723372E+03
 3.0940480E+00  2.0389078E+03
 3.0970914E+00  2.0007761E+03
 3.1001348E+00  1.9461221E+03
 3.1031783E+00  1.8910642E+03
 3.1062214E+00  1.8611190E+03
 3.1092649E+00  1.8444901E+03
 3.1123083E+00  1.8047990E+03
 3.1153517E+00  1.7718416E+03
 3.1183951E+00  1.7851824E+03
 3.1214385E+00  1.7874974E+03
 3.1244819E+00  1.7654901E+03
 3.1275253E+00  1.7857147E+03
 3.1305685E+00  1.7765067E+03
 3.1336119E+00  1.7554797E+03
 3.1366553E+00  1.8382974E+03
 3.1396987E+00  1.9126003E+03
 3.1427422E+00  1.9386440E+03
 3.1457856E+00  1.9673995E+03
 3.1488290E+00  2.0255129E+03
 3.1518724E+00  2.0705117E+03
 3.1549156E+00  2.0627397E+03
 3.1579590E+00  2.0597598E+03
 3.1610024E+00  2.0230690E+03
 3.1640458E+00  1.9468986E+03
 3.1670892E+00  1.9051780E+03
 3.1701326E+00  1.8499530E+03
 3.1731761E+00  1.7512366E+03
 3.1762195E+00  1.7345354E+03
 3.1792626E+00  1.7198590E+03
 3.1823061E+00  1.7277883E+03
 3.1853495E+00  1.7549192E+03
 3.1883929E+00  1.7344686E+03
 3.1914363E+00  1.6854106E+03
 3.1944797E+00  1.6459752E+03
 3.1975231E+00  1.6536414E+03
 3.2005665E+00  1.6766071E+03
 3.2036097E+00  1.6656462E+03
 3.2066531E+00  1.6862953E+03
 3.2096965E+00  1.7217357E+03
 3.2127399E+00  1.6447723E+03
 3.2157834E+00  1.6230458E+03
 3.2188268E+00  1.6950276E+03
 3.2218702E+00  1.6995366E+03
 3.2249136E+00  1.6762374E+03
 3.2279568E+00  1.6947052E+03
 3.2310002E+00  1.7322490E+03
 3.2340436E+00  1.7073982E+03
 3.2370870E+00  1.6891276E+03
 3.2401304E+00  1.6444266E+03
 3.2431738E+00  1.6483075E+03
 3.2462173E+00  1.6728513E+03
 3.2492607E+00  1.6730742E+03
 3.2523038E+00  1.7066909E+03
 3.2553473E+00  1.7127468E+03
 3.2583907E+00  1.7360541E+03
 3.2614341E+00  1.7292736E+03
 3.2644775E+00  1.6964484E+03
 3.2675209E+00  1.6948379E+03
 3.2705643E+00  1.6987059E+03
 3.2736077E+00  1.6988578E+03
 3.2766509E+00  1.7083611E+03
 3.2796943E+00  1.7075109E+03
 3.2827377E+00  1.6793954E+03
 3.2857811E+00  1.6893680E+03
 3.2888246E+00  1.7242573E+03
 3.2918680E+00  1.7504122E+03
 3.2949114E+00  1.7406422E+03
 3.2979548E+00  1.7370471E+03
 3.3009980E+00  1.7274811E+03
 3.3040414E+00  1.6904539E+03
 3.3070848E+00  1.6768143E+03
 3.3101282E+00  1.7026998E+03
 3.3131716E+00  1.6971366E+03
 3.3162150E+00  1.6608566E+03
 3.3192585E+00  1.6781630E+03
 3.3223019E+00  1.6831719E+03
 3.3253450E+00  1.6823851E+03
 3.3283885E+00  1.7248030E+03
 3.3314319E+00  1.7452817E+03
 3.3344753E+00  1.7302733E+03
 3.3375187E+00  1.7184183E+03
 3.3405621E+00  1.7062024E+03
 3.3436055E+00  1.7234635E+03
 3.3466489E+00  1.7064843E+03
 3.3496921E+00  1.6903726E+03
 3.3527355E+00  1.7022778E+03
 3.3557789E+00  1.7076235E+03
 3.3588223E+00  1.7204800E+03
 3.3618658E+00  1.7301434E+03
 3.3649092E+00  1.7311450E+03
 3.3679526E+00  1.7437190E+03
 3.3709960E+00  1.7607704E+03
 3.3740392E+00  1.7271550E+03
 3.3770826E+00  1.7154993E+03
 3.3801260E+00  1.7544664E+03
 3.3831694E+00  1.7601553E+03
 3.3862128E+00  1.7728988E+03
 3.3892562E+00  1.7751260E+03
 3.3922997E+00  1.7481819E+03
 3.3953428E+00  1.7612841E+03
 3.3983862E+00  1.7852717E+03
 3.4014297E+00  1.7992332E+03
 3.4044731E+00  1.7858643E+03
 3.4075165E+00  1.7522317E+03
 3.4105599E+00  1.7532589E+03
 3.4136033E+00  1.7812406E+03
 3.4166467E+00  1.8323612E+03
 3.4196899E+00  1.8880815E+03
 3.4227333E+00  1.9082612E+03
 3.4257767E+00  1.8151293E+03
 3.4288201E+00  1.7808677E+03
 3.4318635E+00  1.7986948E+03
 3.4349070E+00  1.8190868E+03
 3.4379504E+00  1.8183448E+03
 3.4409938E+00  1.8269587E+03
 3.4440370E+00  1.8241895E+03
 3.4470804E+00  1.8292048E+03
 3.4501238E+00  1.8612097E+03
 3.4531672E+00  1.8636796E+03
 3.4562106E+00  1.8527120E+03
 3.4592540E+00  1.8656046E+03
 3.4622974E+00  1.8130474E+03
 3.4653409E+00  1.7632900E+03
 3.4683840E+00  1.7738573E+03
 3.4714274E+00  1.8161345E+03
 3.4744709E+00  1.8077131E+03
 3.4775143E+00  1.7724716E+03
 3.4805577E+00  1.7666212E+03
 3.4836011E+00  1.7824335E+03
 3.4866445E+00  1.7694357E+03
 3.4896879E+00  1.7542111E+03
 3.4927311E+00  1.7630981E+03
 3.4957745E+00  1.7512704E+03
 3.4988179E+00  1.7230264E+03
 3.5018613E+00  1.7449498E+03
 3.5049047E+00  1.7887345E+03
 3.5079482E+00  1.7804137E+03
 3.5109916E+00  1.7738000E+03
 3.5140350E+00  1.8054569E+03
 3.5170782E+00  1.7908198E+03
 3.5201216E+00  1.7753369E+03
 3.5231650E+00  1.8382249E+03
 3.5262084E+00  1.8712025E+03
 3.5292518E+00  1.8328353E+03
 3.5322952E+00  1.8196238E+03
 3.5353386E+00  1.8461146E+03
 3.5383821E+00  1.8209585E+03
 3.5414252E+00  1.7876425E+03
 3.5444686E+00  1.8220980E+03
 3.5475121E+00  1.7820830E+03
 3.5505555E+00  1.7649019E+03
 3.5535989E+00  1.7979663E+03
 3.5566423E+00  1.7809982E+03
 3.5596857E+00  1.7559384E+03
 3.5627291E+00  1.7637524E+03
 3.5657723E+00  1.7666624E+03
 3.5688157E+00  1.7509113E+03
 3.5718591E+00  1.7978944E+03
 3.5749025E+00  1.8527200E+03
 3.5779459E+00  1.8555521E+03
 3.5809894E+00  1.8634100E+03
 3.5840328E+00  1.8622094E+03
 3.5870762E+00  1.8326575E+03
 3.5901194E+00  1.8528357E+03
 3.5931628E+00  1.8541177E+03
 3.5962062E+00  1.8416917E+03
 3.5992496E+00  1.8527031E+03
 3.6022930E+00  1.8429258E+03
 3.6053364E+00  1.8772692E+03
 3.6083798E+00  1.9247274E+03
 3.6114233E+00  1.8980144E+03
 3.6144664E+00  1.8932468E+03
 3.6175098E+00  1.8993654E+03
 3.6205533E+00  1.8962620E+03
 3.6235967E+00  1.8748049E+03
 3.6266401E+00  1.8673998E+03
 3.6296835E+00  1.9259834E+03
 3.6327269E+00  1.9439193E+03
 3.6357703E+00  1.9196785E+03
 3.6388135E+00  1.8841339E+03
 3.6418569E+00  1.9101112E+03
 3.6449003E+00  1.9429736E+03
 3.6479437E+00  1.9373065E+03
 3.6509871E+00  1.9692291E+03
 3.6540306E+00  2.0102715E+03
 3.6570740E+00  2.0552112E+03
 3.6601174E+00  2.0251016E+03
 3.6631606E+00  2.0229989E+03
 3.6662040E+00  2.0754063E+03
 3.6692474E+00  2.0738406E+03
 3.6722908E+00  2.0882942E+03
 3.6753342E+00  2.1387407E+03
 3.6783776E+00  2.1678918E+03
 3.6814210E+00  2.2190234E+03
 3.6844645E+00  2.2888030E+03
 3.6875076E+00  2.3707576E+03
 3.6905510E+00  2.4501372E+03
 3.6935945E+00  2.5011812E+03
 3.6966379E+00  2.6029456E+03
 3.6996813E+00  2.7349111E+03
 3.7027247E+00  2.8182280E+03
 3.7057681E+00  2.9601458E+03
 3.7088115E+00  3.0616838E+03
 3.7118547E+00  3.1428782E+03
 3.7148981E+00  3.2137708E+03
 3.7179415E+00  3.2935474E+03
 3.7209849E+00  3.3547249E+03
 3.7240283E+00  3.4031848E+03
 3.7270718E+00  3.4652964E+03
 3.7301152E+00  3.4934180E+03
 3.7331586E+00  3.5238147E+03
 3.7362018E+00  3.6202771E+03
 3.7392452E+00  3.7629553E+03
 3.7422886E+00  3.9373267E+03
 3.7453320E+00  4.2457476E+03
 3.7483754E+00  4.5751504E+03
 3.7514188E+00  5.0487080E+03
 3.7544622E+00  5.5082983E+03
 3.7575057E+00  6.0118096E+03
 3.7605488E+00  6.4725591E+03
 3.7635922E+00  6.7081519E+03
 3.7666357E+00  6.7853608E+03
 3.7696791E+00  6.5879800E+03
 3.7727225E+00  6.1575977E+03
 3.7757659E+00  5.5011387E+03
 3.7788093E+00  4.9080444E+03
 3.7818527E+00  4.3222056E+03
 3.7848959E+00  3.8353062E+03
 3.7879393E+00  3.4191987E+03
 3.7909827E+00  3.1483286E+03
 3.7940261E+00  2.9665095E+03
 3.7970695E+00  2.7915891E+03
 3.8001130E+00  2.6216763E+03
 3.8031564E+00  2.4712183E+03
 3.8061998E+00  2.3981938E+03
 3.8092430E+00  2.3461560E+03
 3.8122864E+00  2.3018645E+03
 3.8153298E+00  2.2754124E+03
 3.8183732E+00  2.2388494E+03
 3.8214166E+00  2.1939905E+03
 3.8244600E+00  2.2031189E+03
 3.8275034E+00  2.2523821E+03
 3.8305469E+00  2.2374727E+03
 3.8335900E+00  2.2025215E+03
 3.8366334E+00  2.1866628E+03
 3.8396769E+00  2.1932122E+03
 3.8427203E+00  2.1607449E+03
 3.8457637E+00  2.1308333E+03
 3.8488071E+00  2.1397859E+03
 3.8518505E+00  2.1096387E+03
 3.8548939E+00  2.1027334E+03
 3.8579371E+00  2.0825962E+03
 3.8609805E+00  2.0667661E+03
 3.8640239E+00  2.0816328E+03
 3.8670673E+00  2.1081824E+03
 3.8701108E+00  2.1240637E+03
 3.8731542E+00  2.0946450E+03
 3.8761976E+00  2.0621287E+03
 3.8792410E+00  2.0827393E+03
 3.8822842E+00  2.1311855E+03
 3.8853276E+00  2.1327241E+03
 3.8883710E+00  2.1443018E+03
 3.8914144E+00  2.1319294E+03
 3.8944578E+00  2.0822795E+03
 3.8975012E+00  2.0953853E+03
 3.9005446E+00  2.1288901E+03
 3.9035881E+00  2.1295295E+03
 3.9066312E+00  2.0875144E+03
 3.9096746E+00  2.0751611E+03
 3.9127181E+00  2.0894836E+03
 3.9157615E+00  2.0753914E+03
 3.9188049E+00  2.0786130E+03
 3.9218483E+00  2.1081277E+03
 3.9248917E+00  2.1457039E+03
 3.9279351E+00  2.1496782E+03
 3.9309783E+00  2.1406479E+03
 3.9340217E+00  2.1025635E+03
 3.9370651E+00  2.1225933E+03
 3.9401085E+00  2.1604771E+03
 3.9431520E+00  2.1647363E+03
 3.9461954E+00  2.1717900E+03
 3.9492388E+00  2.1500166E+03
 3.9522822E+00  2.1424707E+03
 3.9553254E+00  2.1815491E+03
 3.9583688E+00  2.1860012E+03
 3.9614122E+00  2.1568801E+03
 3.9644556E+00  2.1149226E+03
 3.9674990E+00  2.1288711E+03
 3.9705424E+00  2.1405613E+03
 3.9735858E+00  2.1305359E+03
 3.9766293E+00  2.1434792E+03
 3.9796724E+00  2.1387859E+03
 3.9827158E+00  2.1809434E+03
 3.9857593E+00  2.2526074E+03
 3.9888027E+00  2.2344619E+03
 3.9918461E+00  2.2095347E+03
 3.9948895E+00  2.2479556E+03
 3.9979329E+00  2.2661140E+03
 4.0009761E+00  2.2755464E+03
 4.0040197E+00  2.2720557E+03
 4.0070629E+00  2.2774238E+03
 4.0101066E+00  2.2985166E+03
 4.0131497E+00  2.2967656E+03
 4.0161929E+00  2.3274871E+03
 4.0192366E+00  2.3097859E+03
 4.0222797E+00  2.2837322E+03
 4.0253234E+00  2.3095598E+03
 4.0283666E+00  2.3018413E+03
 4.0314102E+00  2.2509475E+03
 4.0344534E+00  2.2978140E+03
 4.0374970E+00  2.3713550E+03
 4.0405402E+00  2.3725874E+03
 4.0435834E+00  2.3628562E+03
 4.0466270E+00  2.3336628E+03
 4.0496702E+00  2.3395635E+03
 4.0527139E+00  2.3566604E+03
 4.0557570E+00  2.3791992E+03
 4.0588007E+00  2.4115974E+03
 4.0618439E+00  2.4028252E+03
 4.0648870E+00  2.3886509E+03
 4.0679307E+00  2.4333247E+03
 4.0709739E+00  2.4557854E+03
 4.0740175E+00  2.4285715E+03
 4.0770607E+00  2.4606577E+03
 4.0801044E+00  2.4841934E+03
 4.0831475E+00  2.4604495E+03
 4.0861912E+00  2.5005637E+03
 4.0892344E+00  2.5182766E+03
 4.0922775E+00  2.5277729E+03
 4.0953212E+00  2.5484426E+03
 4.0983644E+00  2.5546997E+03
 4.1014080E+00  2.5676926E+03
 4.1044512E+00  2.5620320E+03
 4.1074948E+00  2.5997368E+03
 4.1105380E+00  2.5798711E+03
 4.1135812E+00  2.5914163E+03
 4.1166248E+00  2.6337869E+03
 4.1196680E+00  2.6514417E+03
 4.1227117E+00  2.6726104E+03
 4.1257548E+00  2.7048486E+03
 4.1287985E+00  2.7339304E+03
 4.1318417E+00  2.7664004E+03
 4.1348853E+00  2.7484800E+03
 4.1379285E+00  2.7495110E+03
 4.1409717E+00  2.7695693E+03
 4.1440153E+00  2.7752512E+03
 4.1470585E+00  2.8145720E+03
 4.1501021E+00  2.8262310E+03
 4.1531453E+00  2.8465574E+03
 4.1561890E+00  2.8487422E+03
 4.1592321E+00  2.8628889E+03
 4.1622753E+00  2.9094565E+03
 4.1653190E+00  2.8621978E+03
 4.1683621E+00  2.8534658E+03
 4.1714058E+00  2.9403386E+03
 4.1744490E+00  2.9630000E+03
 4.1774926E+00  2.9514292E+03
 4.1805358E+00  2.9506211E+03
 4.1835790E+00  2.9629810E+03
 4.1866226E+00  3.0209092E+03
 4.1896658E+00  3.0600596E+03
 4.1927094E+00  3.0694824E+03
 4.1957526E+00  3.0839758E+03
 4.1987963E+00  3.0632532E+03
 4.2018394E+00  3.0583257E+03
 4.2048831E+00  3.1385349E+03
 4.2079263E+00  3.2160469E+03
 4.2109694E+00  3.2159746E+03
 4.2140131E+00  3.1881228E+03
 4.2170563E+00  3.2153125E+03
 4.2200999E+00  3.2324824E+03
 4.2231431E+00  3.2673076E+03
 4.2261868E+00  3.2900417E+03
 4.2292299E+00  3.2670798E+03
 4.2322731E+00  3.2974224E+03
 4.2353168E+00  3.3234561E+03
 4.2383599E+00  3.3670232E+03
 4.2414036E+00  3.4334160E+03
 4.2444468E+00  3.4638625E+03
 4.2474904E+00  3.4379543E+03
 4.2505336E+00  3.4150737E+03
 4.2535772E+00  3.4739153E+03
 4.2566204E+00  3.5177871E+03
 4.2596636E+00  3.5258767E+03
 4.2627072E+00  3.5443037E+03
 4.2657504E+00  3.5689185E+03
 4.2687941E+00  3.5945959E+03
 4.2718372E+00  3.6296345E+03
 4.2748809E+00  3.6546025E+03
 4.2779241E+00  3.6856472E+03
 4.2809672E+00  3.6866116E+03
 4.2840109E+00  3.7126240E+03
 4.2870541E+00  3.7716497E+03
 4.2900977E+00  3.7593599E+03
 4.2931409E+00  3.7554353E+03
 4.2961845E+00  3.7766035E+03
 4.2992277E+00  3.8337500E+03
 4.3022714E+00  3.8626504E+03
 4.3053145E+00  3.8662222E+03
 4.3083577E+00  3.8951155E+03
 4.3114014E+00  3.9367515E+03
 4.3144445E+00  3.9584355E+03
 4.3174882E+00  3.9780669E+03
 4.3205314E+00  3.9857441E+03
 4.3235750E+00  4.0199500E+03
 4.3266182E+00  4.0155581E+03
 4.3296614E+00  4.0088301E+03
 4.3327050E+00  4.0436294E+03
 4.3357482E+00  4.0067593E+03
 4.3387918E+00  4.0241599E+03
 4.3418350E+00  4.0612078E+03
 4.3448787E+00  4.1093350E+03
 4.3479218E+00  4.1278872E+03
 4.3509655E+00  4.1150815E+03
 4.3540087E+00  4.1789546E+03
 4.3570518E+00  4.1785366E+03
 4.3600955E+00  4.1444458E+03
 4.3631387E+00  4.1742271E+03
 4.3661823E+00  4.1694312E+03
 4.3692255E+00  4.2313354E+03
 4.3722692E+00  4.2523779E+03
 4.3753123E+00  4.2467842E+03
 4.3783555E+00  4.2826924E+03
 4.3813992E+00  4.2352314E+03
 4.3844423E+00  4.2392485E+03
 4.3874860E+00  4.2518838E+03
 4.3905292E+00  4.2574980E+03
 4.3935728E+00  4.3062983E+03
 4.3966160E+00  4.2516201E+03
 4.3996596E+00  4.2415400E+03
 4.4027028E+00  4.2366953E+03
 4.4057460E+00  4.2313345E+03
 4.4087896E+00  4.2953564E+03
 4.4118328E+00  4.2462656E+03
 4.4148765E+00  4.2551636E+03
 4.4179196E+00  4.2871338E+03
 4.4209633E+00  4.2653154E+03
 4.4240065E+00  4.2839233E+03
 4.4270496E+00  4.2324272E+03
 4.4300933E+00  4.2324121E+03
 4.4331365E+00  4.2648774E+03
 4.4361801E+00  4.2849521E+03
 4.4392233E+00  4.3532593E+03
 4.4422669E+00  4.3409907E+03
 4.4453101E+00  4.3700679E+03
 4.4483538E+00  4.3933281E+03
 4.4513969E+00  4.3520737E+03
 4.4544401E+00  4.4279468E+03
 4.4574838E+00  4.4473818E+03
 4.4605269E+00  4.4607324E+03
 4.4635706E+00  4.4890371E+03
 4.4666138E+00  4.4603896E+03
 4.4696574E+00  4.4800322E+03
 4.4727006E+00  4.4692520E+03
 4.4757438E+00  4.4419214E+03
 4.4787874E+00  4.3977275E+03
 4.4818306E+00  4.3475186E+03
 4.4848742E+00  4.3290122E+03
 4.4879174E+00  4.2494048E+03
 4.4909611E+00  4.2704766E+03
 4.4940042E+00  4.3116162E+03
 4.4970479E+00  4.2525034E+03
 4.5000911E+00  4.2550347E+03
 4.5031343E+00  4.2737661E+03
 4.5061779E+00  4.3318721E+03
 4.5092211E+00  4.3460601E+03
 4.5122647E+00  4.2881997E+03
 4.5153079E+00  4.3474370E+03
 4.5183516E+00  4.3385557E+03
 4.5213947E+00  4.3113662E+03
 4.5244379E+00  4.3299678E+03
 4.5274816E+00  4.3068877E+03
 4.5305247E+00  4.3699736E+03
 4.5335684E+00  4.3370835E+03
 4.5366116E+00  4.2961470E+03
 4.5396552E+00  4.3819639E+03
 4.5426984E+00  4.4329741E+03
 4.5457420E+00  4.5230596E+03
 4.5487852E+00  4.5564561E+03
 4.5518284E+00  4.5974111E+03
 4.5548720E+00  4.6869165E+03
 4.5579152E+00  4.7430840E+03
 4.5609589E+00  4.8715483E+03
 4.5640020E+00  4.9513853E+03
 4.5670457E+00  5.0179150E+03
 4.5700889E+00  5.0987832E+03
 4.5731320E+00  5.1531636E+03
 4.5761757E+00  5.2078735E+03
 4.5792189E+00  5.2116646E+03
 4.5822625E+00  5.2200098E+03
 4.5853057E+00  5.2112744E+03
 4.5883493E+00  5.1210645E+03
 4.5913925E+00  5.1007549E+03
 4.5944362E+00  5.0432227E+03
 4.5974793E+00  4.9337656E+03
 4.6005225E+00  4.8682476E+03
 4.6035662E+00  4.8058950E+03
 4.6066093E+00  4.8090405E+03
 4.6096530E+00  4.7681763E+03
 4.6126962E+00  4.7575386E+03
 4.6157398E+00  4.7638130E+03
 4.6187830E+00  4.7076855E+03
 4.6218262E+00  4.6858618E+03
 4.6248698E+00  4.6563657E+03
 4.6279130E+00  4.6507974E+03
 4.6309566E+00  4.6183721E+03
 4.6339998E+00  4.5224067E+03
 4.6370435E+00  4.4928838E+03
 4.6400867E+00  4.4546592E+03
 4.6431303E+00  4.4075479E+03
 4.6461735E+00  4.3417158E+03
 4.6492167E+00  4.2448589E+03
 4.6522603E+00  4.2220200E+03
 4.6553035E+00  4.1392446E+03
 4.6583471E+00  4.0818354E+03
 4.6613903E+00  4.0541406E+03
 4.6644340E+00  4.0126694E+03
 4.6674771E+00  4.0161079E+03
 4.6705203E+00  3.9839988E+03
 4.6735640E+00  3.9757771E+03
 4.6766071E+00  3.9845601E+03
 4.6796508E+00  3.9538423E+03
 4.6826940E+00  3.9819419E+03
 4.6857376E+00  3.9442861E+03
 4.6887808E+00  3.8822871E+03
 4.6918244E+00  3.8985862E+03
 4.6948676E+00  3.9097292E+03
 4.6979108E+00  3.9055195E+03
 4.7009544E+00  3.8372813E+03
 4.7039976E+00  3.8049756E+03
 4.7070413E+00  3.8138921E+03
 4.7100844E+00  3.7860083E+03
 4.7131281E+00  3.8008330E+03
 4.7161713E+00  3.7744419E+03
 4.7192144E+00  3.7726179E+03
 4.7222581E+00  3.7960613E+03
 4.7253013E+00  3.7391804E+03
 4.7283449E+00  3.7576768E+03
 4.7313881E+00  3.7484993E+03
 4.7344317E+00  3.6480393E+03
 4.7374749E+00  3.6759333E+03
 4.7405186E+00  3.6990020E+03
 4.7435617E+00  3.6899502E+03
 4.7466049E+00  3.6857944E+03
 4.7496486E+00  3.6700952E+03
 4.7526917E+00  3.6331221E+03
 4.7557354E+00  3.5933193E+03
 4.7587786E+00  3.5742773E+03
 4.7618222E+00  3.5465996E+03
 4.7648654E+00  3.5569609E+03
 4.7679086E+00  3.5353889E+03
 4.7709522E+00  3.5211997E+03
 4.7739954E+00  3.5093057E+03
 4.7770391E+00  3.4646333E+03
 4.7800822E+00  3.4636863E+03
 4.7831259E+00  3.4859534E+03
 4.7861691E+00  3.4491660E+03
 4.7892127E+00  3.4200898E+03
 4.7922559E+00  3.4382581E+03
 4.7952991E+00  3.4482837E+03
 4.7983427E+00  3.4269761E+03
 4.8013859E+00  3.3972915E+03
 4.8044295E+00  3.3818018E+03
 4.8074727E+00  3.4057646E+03
 4.8105164E+00  3.3968735E+03
 4.8135595E+00  3.3417385E+03
 4.8166027E+00  3.3510713E+03
 4.8196464E+00  3.3275317E+03
 4.8226895E+00  3.2598464E+03
 4.8257332E+00  3.2398091E+03
 4.8287764E+00  3.2638640E+03
 4.8318200E+00  3.2633743E+03
 4.8348632E+00  3.2456790E+03
 4.8379068E+00  3.2228672E+03
 4.8409500E+00  3.2433264E+03
 4.8439932E+00  3.2621567E+03
 4.8470368E+00  3.2482769E+03
 4.8500800E+00  3.2568296E+03
 4.8531237E+00  3.2207576E+03
 4.8561668E+00  3.1888477E+03
 4.8592105E+00  3.2017422E+03
 4.8622537E+00  3.2092024E+03
 4.8652968E+00  3.2289583E+03
 4.8683405E+00  3.2399412E+03
 4.8713837E+00  3.2659182E+03
 4.8744273E+00  3.2839402E+03
 4.8774705E+00  3.2429092E+03
 4.8805141E+00  3.2192944E+03
 4.8835573E+00  3.2058787E+03
 4.8866010E+00  3.1467034E+03
 4.8896441E+00  3.1135474E+03
 4.8926873E+00  3.1081482E+03
 4.8957310E+00  3.0932554E+03
 4.8987741E+00  3.0871377E+03
 4.9018178E+00  3.0697185E+03
 4.9048610E+00  3.0246304E+03
 4.9079046E+00  3.0090139E+03
 4.9109478E+00  2.9862932E+03
 4.9139910E+00  2.9684089E+03
 4.9170346E+00  2.9699534E+03
 4.9200778E+00  2.9209314E+03
 4.9231215E+00  2.9163818E+03
 4.9261646E+00  2.9315442E+03
 4.9292083E+00  2.9065571E+03
 4.9322515E+00  2.8926829E+03
 4.9352946E+00  2.8879089E+03
 4.9383383E+00  2.8635781E+03
 4.9413815E+00  2.8450029E+03
 4.9444251E+00  2.8399805E+03
 4.9474683E+00  2.8433193E+03
 4.9505119E+00  2.7981462E+03
 4.9535551E+00  2.7939338E+03
 4.9565988E+00  2.7949490E+03
 4.9596419E+00  2.7758535E+03
 4.9626851E+00  2.7706353E+03
 4.9657288E+00  2.7599800E+03
 4.9687719E+00  2.7780137E+03
 4.9718156E+00  2.7753669E+03
 4.9748588E+00  2.7612446E+03
 4.9779024E+00  2.7602673E+03
 4.9809456E+00  2.7258091E+03
 4.9839888E+00  2.7274275E+03
 4.9870324E+00  2.7688896E+03
 4.9900756E+00  2.7668608E+03
 4.9931192E+00  2.6908687E+03
 4.9961624E+00  2.6603572E+03
 4.9992061E+00  2.6916548E+03
 5.0022492E+00  2.6545266E+03
 5.0052929E+00  2.6464875E+03
 5.0083361E+00  2.6515061E+03
 5.0113792E+00  2.6400356E+03
 5.0144229E+00  2.6416704E+03
 5.0174661E+00  2.6241467E+03
 5.0205097E+00  2.6163420E+03
 5.0235529E+00  2.6252368E+03
 5.0265965E+00  2.6363120E+03
 5.0296397E+00  2.6545752E+03
 5.0326829E+00  2.6035623E+03
 5.0357265E+00  2.6153530E+03
 5.0387697E+00  2.6073896E+03
 5.0418134E+00  2.5991052E+03
 5.0448565E+00  2.6319104E+03
 5.0479002E+00  2.5795496E+03
 5.0509434E+00  2.5480574E+03
 5.0539870E+00  2.5555044E+03
 5.0570302E+00  2.5926636E+03
 5.0600734E+00  2.5800840E+03
 5.0631170E+00  2.5272170E+03
 5.0661602E+00  2.5425549E+03
 5.0692039E+00  2.5672002E+03
 5.0722470E+00  2.5631375E+03
