1.010345	 222.950000 	 
1.013780	 230.980000 	 
1.017215	 232.987000 	 
1.020650	 223.659000 	 
1.024086	 217.075000 	 
1.027521	 221.194000 	 
1.030956	 233.073000 	 
1.034391	 236.345000 	 
1.037826	 232.943000 	 
1.041261	 223.254000 	 
1.044696	 221.806000 	 
1.048132	 230.096000 	 
1.051567	 226.011000 	 
1.055002	 222.675000 	 
1.058437	 220.711000 	 
1.061872	 219.734000 	 
1.065307	 220.505000 	 
1.068742	 221.113000 	 
1.072177	 224.036000 	 
1.075612	 222.479000 	 
1.079048	 221.861000 	 
1.082483	 217.185000 	 
1.085918	 222.963000 	 
1.089353	 218.569000 	 
1.092788	 215.661000 	 
1.096223	 215.681000 	 
1.099658	 212.844000 	 
1.103093	 204.016000 	 
1.106529	 203.491000 	 
1.109964	 216.960000 	 
1.113399	 232.679000 	 
1.116834	 235.441000 	 
1.120269	 238.734000 	 
1.123704	 241.133000 	 
1.127139	 231.490000 	 
1.130574	 226.305000 	 
1.134009	 225.518000 	 
1.137445	 226.670000 	 
1.140880	 223.801000 	 
1.144315	 220.937000 	 
1.147750	 210.534000 	 
1.151185	 212.681000 	 
1.154620	 218.470000 	 
1.158055	 213.241000 	 
1.161490	 214.227000 	 
1.164926	 210.708000 	 
1.168361	 219.970000 	 
1.171796	 226.343000 	 
1.175231	 220.410000 	 
1.178666	 219.145000 	 
1.182101	 215.384000 	 
1.185536	 208.474000 	 
1.188971	 210.719000 	 
1.192406	 221.762000 	 
1.195842	 233.221000 	 
1.199277	 233.479000 	 
1.202712	 225.538000 	 
1.206147	 226.621000 	 
1.209582	 229.122000 	 
1.213017	 235.604000 	 
1.216452	 231.567000 	 
1.219888	 224.403000 	 
1.223323	 226.484000 	 
1.226758	 221.615000 	 
1.230193	 215.649000 	 
1.233628	 210.425000 	 
1.237063	 211.970000 	 
1.240498	 219.053000 	 
1.243933	 219.561000 	 
1.247369	 229.893000 	 
1.250804	 227.625000 	 
1.254239	 229.391000 	 
1.257674	 225.792000 	 
1.261109	 215.932000 	 
1.264544	 216.147000 	 
1.267979	 220.421000 	 
1.271414	 230.862000 	 
1.274849	 227.432000 	 
1.278285	 218.687000 	 
1.281720	 219.323000 	 
1.285155	 221.498000 	 
1.288590	 223.527000 	 
1.292025	 218.249000 	 
1.295460	 213.037000 	 
1.298895	 212.880000 	 
1.302330	 213.129000 	 
1.305765	 217.050000 	 
1.309201	 220.739000 	 
1.312636	 223.823000 	 
1.316071	 220.700000 	 
1.319506	 219.000000 	 
1.322941	 218.946000 	 
1.326376	 219.145000 	 
1.329811	 224.351000 	 
1.333247	 230.189000 	 
1.336682	 225.968000 	 
1.340117	 219.378000 	 
1.343552	 217.947000 	 
1.346987	 219.394000 	 
1.350422	 215.691000 	 
1.353857	 217.528000 	 
1.357292	 222.906000 	 
1.360727	 227.773000 	 
1.364163	 233.285000 	 
1.367598	 232.617000 	 
1.371033	 227.793000 	 
1.374468	 224.198000 	 
1.377903	 221.368000 	 
1.381338	 219.494000 	 
1.384773	 212.346000 	 
1.388208	 213.389000 	 
1.391644	 217.984000 	 
1.395079	 223.084000 	 
1.398514	 221.827000 	 
1.401949	 226.308000 	 
1.405384	 220.574000 	 
1.408819	 217.394000 	 
1.412254	 218.330000 	 
1.415689	 218.753000 	 
1.419124	 224.787000 	 
1.422560	 231.273000 	 
1.425995	 228.137000 	 
1.429430	 225.625000 	 
1.432865	 220.353000 	 
1.436300	 219.014000 	 
1.439735	 225.530000 	 
1.443170	 220.356000 	 
1.446605	 221.468000 	 
1.450041	 225.531000 	 
1.453476	 223.789000 	 
1.456911	 216.451000 	 
1.460346	 213.624000 	 
1.463781	 216.150000 	 
1.467216	 218.576000 	 
1.470651	 223.168000 	 
1.474087	 226.121000 	 
1.477521	 227.238000 	 
1.480957	 230.506000 	 
1.484392	 232.765000 	 
1.487827	 234.175000 	 
1.491262	 228.566000 	 
1.494697	 221.294000 	 
1.498132	 220.155000 	 
1.501567	 224.198000 	 
1.505003	 224.124000 	 
1.508438	 228.577000 	 
1.511873	 229.057000 	 
1.515308	 229.710000 	 
1.518743	 227.969000 	 
1.522178	 220.182000 	 
1.525613	 222.860000 	 
1.529048	 224.645000 	 
1.532484	 222.997000 	 
1.535919	 213.606000 	 
1.539354	 214.371000 	 
1.542789	 217.788000 	 
1.546224	 220.427000 	 
1.549659	 224.204000 	 
1.553094	 223.432000 	 
1.556529	 226.494000 	 
1.559965	 226.096000 	 
1.563400	 225.473000 	 
1.566835	 238.605000 	 
1.570270	 231.584000 	 
1.573705	 223.393000 	 
1.577140	 223.403000 	 
1.580575	 223.861000 	 
1.584010	 229.592000 	 
1.587446	 237.104000 	 
1.590881	 240.708000 	 
1.594316	 250.932000 	 
1.597751	 261.229000 	 
1.601186	 265.574000 	 
1.604621	 289.384000 	 
1.608056	 340.657000 	 
1.611491	 488.801000 	 
1.614926	 792.709000 	 
1.618362	 1176.340000 	 
1.621797	 1498.820000 	 
1.625232	 1489.820000 	 
1.628667	 1262.720000 	 
1.632102	 872.884000 	 
1.635537	 657.889000 	 
1.638972	 516.653000 	 
1.642407	 441.128000 	 
1.645843	 417.310000 	 
1.649278	 413.661000 	 
1.652713	 447.212000 	 
1.656148	 572.399000 	 
1.659583	 784.375000 	 
1.663018	 1098.820000 	 
1.666453	 1299.750000 	 
1.669888	 1268.550000 	 
1.673324	 991.807000 	 
1.676759	 631.458000 	 
1.680194	 418.991000 	 
1.683629	 302.614000 	 
1.687064	 267.652000 	 
1.690499	 257.220000 	 
1.693934	 251.585000 	 
1.697369	 252.637000 	 
1.700805	 251.049000 	 
1.704240	 245.353000 	 
1.707675	 239.279000 	 
1.711110	 242.475000 	 
1.714545	 235.383000 	 
1.717980	 235.470000 	 
1.721415	 235.691000 	 
1.724850	 233.071000 	 
1.728285	 227.426000 	 
1.731721	 224.525000 	 
1.735156	 218.063000 	 
1.738591	 214.884000 	 
1.742026	 218.731000 	 
1.745461	 224.288000 	 
1.748896	 230.412000 	 
1.752331	 222.318000 	 
1.755766	 216.962000 	 
1.759202	 212.337000 	 
1.762637	 222.143000 	 
1.766072	 224.979000 	 
1.769507	 223.927000 	 
1.772942	 212.434000 	 
1.776377	 210.980000 	 
1.779812	 216.253000 	 
1.783247	 226.871000 	 
1.786683	 230.247000 	 
1.790118	 227.369000 	 
1.793553	 221.856000 	 
1.796988	 213.329000 	 
1.800423	 209.526000 	 
1.803858	 206.123000 	 
1.807293	 211.462000 	 
1.810728	 216.331000 	 
1.814163	 219.181000 	 
1.817599	 220.588000 	 
1.821034	 220.962000 	 
1.824469	 218.180000 	 
1.827904	 212.014000 	 
1.831339	 212.455000 	 
1.834774	 220.147000 	 
1.838209	 214.691000 	 
1.841644	 214.140000 	 
1.845080	 217.979000 	 
1.848515	 217.189000 	 
1.851950	 210.711000 	 
1.855385	 210.249000 	 
1.858820	 217.781000 	 
1.862255	 222.764000 	 
1.865690	 220.423000 	 
1.869125	 218.290000 	 
1.872561	 220.837000 	 
1.875996	 218.995000 	 
1.879431	 220.634000 	 
1.882866	 221.954000 	 
1.886301	 223.439000 	 
1.889736	 219.149000 	 
1.893171	 215.444000 	 
1.896606	 217.588000 	 
1.900041	 221.965000 	 
1.903477	 222.025000 	 
1.906912	 220.887000 	 
1.910347	 215.651000 	 
1.913782	 210.808000 	 
1.917217	 209.818000 	 
1.920652	 214.560000 	 
1.924087	 224.812000 	 
1.927523	 230.706000 	 
1.930958	 229.428000 	 
1.934393	 226.645000 	 
1.937828	 218.496000 	 
1.941263	 206.483000 	 
1.944698	 210.734000 	 
1.948133	 214.610000 	 
1.951568	 219.530000 	 
1.955003	 219.878000 	 
1.958439	 220.887000 	 
1.961874	 215.162000 	 
1.965309	 213.088000 	 
1.968744	 214.630000 	 
1.972179	 218.237000 	 
1.975614	 225.388000 	 
1.979049	 222.296000 	 
1.982485	 219.497000 	 
1.985920	 217.698000 	 
1.989355	 217.513000 	 
1.992790	 216.895000 	 
1.996225	 214.719000 	 
1.999660	 215.916000 	 
2.003095	 222.108000 	 
2.006530	 224.203000 	 
2.009965	 216.275000 	 
2.013401	 216.265000 	 
2.016836	 215.864000 	 
2.020271	 213.949000 	 
2.023706	 210.939000 	 
2.027141	 214.436000 	 
2.030576	 219.624000 	 
2.034011	 217.940000 	 
2.037446	 219.565000 	 
2.040881	 218.660000 	 
2.044316	 215.007000 	 
2.047752	 218.570000 	 
2.051187	 221.517000 	 
2.054622	 225.548000 	 
2.058057	 223.999000 	 
2.061492	 216.659000 	 
2.064927	 214.617000 	 
2.068363	 219.065000 	 
2.071798	 227.645000 	 
2.075233	 236.928000 	 
2.078668	 235.934000 	 
2.082103	 225.793000 	 
2.085538	 219.905000 	 
2.088973	 218.401000 	 
2.092408	 220.195000 	 
2.095843	 222.490000 	 
2.099279	 222.814000 	 
2.102714	 222.156000 	 
2.106149	 224.930000 	 
2.109584	 223.774000 	 
2.113019	 222.506000 	 
2.116454	 226.153000 	 
2.119889	 230.675000 	 
2.123324	 234.165000 	 
2.126759	 234.768000 	 
2.130195	 234.575000 	 
2.133630	 231.928000 	 
2.137065	 226.497000 	 
2.140500	 218.832000 	 
2.143935	 218.376000 	 
2.147370	 226.982000 	 
2.150806	 228.599000 	 
2.154241	 230.250000 	 
2.157675	 234.426000 	 
2.161111	 234.512000 	 
2.164546	 231.795000 	 
2.167981	 228.043000 	 
2.171416	 230.462000 	 
2.174851	 224.116000 	 
2.178286	 220.243000 	 
2.181721	 220.645000 	 
2.185157	 225.083000 	 
2.188592	 227.929000 	 
2.192027	 227.571000 	 
2.195462	 228.138000 	 
2.198897	 229.153000 	 
2.202332	 228.447000 	 
2.205767	 232.768000 	 
2.209203	 235.532000 	 
2.212638	 237.262000 	 
2.216073	 236.210000 	 
2.219508	 238.681000 	 
2.222943	 237.652000 	 
2.226378	 235.688000 	 
2.229813	 237.953000 	 
2.233248	 244.199000 	 
2.236683	 247.233000 	 
2.240118	 253.762000 	 
2.243554	 256.497000 	 
2.246989	 261.812000 	 
2.250424	 267.626000 	 
2.253859	 269.681000 	 
2.257294	 270.823000 	 
2.260729	 272.687000 	 
2.264164	 276.178000 	 
2.267600	 279.630000 	 
2.271035	 281.070000 	 
2.274470	 289.202000 	 
2.277905	 302.204000 	 
2.281340	 311.569000 	 
2.284775	 317.715000 	 
2.288210	 326.990000 	 
2.291645	 341.767000 	 
2.295080	 361.709000 	 
2.298516	 400.516000 	 
2.301951	 461.362000 	 
2.305386	 559.680000 	 
2.308821	 820.085000 	 
2.312256	 1597.270000 	 
2.315691	 3250.380000 	 
2.319126	 5789.930000 	 
2.322561	 8685.590000 	 
2.325997	 9497.340000 	 
2.329432	 8505.100000 	 
2.332867	 5849.720000 	 
2.336302	 3652.550000 	 
2.339737	 2259.660000 	 
2.343172	 1688.730000 	 
2.346607	 1689.800000 	 
2.350042	 2024.170000 	 
2.353477	 2625.340000 	 
2.356913	 3076.680000 	 
2.360348	 2945.250000 	 
2.363783	 2279.940000 	 
2.367218	 1430.770000 	 
2.370653	 866.626000 	 
2.374088	 556.228000 	 
2.377523	 434.884000 	 
2.380959	 381.765000 	 
2.384394	 344.487000 	 
2.387829	 315.838000 	 
2.391264	 301.608000 	 
2.394699	 289.746000 	 
2.398134	 280.803000 	 
2.401569	 283.347000 	 
2.405004	 283.093000 	 
2.408439	 278.949000 	 
2.411875	 272.520000 	 
2.415310	 262.191000 	 
2.418745	 251.149000 	 
2.422180	 243.642000 	 
2.425615	 244.061000 	 
2.429050	 244.151000 	 
2.432485	 246.654000 	 
2.435920	 247.390000 	 
2.439356	 248.014000 	 
2.442791	 246.052000 	 
2.446226	 244.256000 	 
2.449661	 241.234000 	 
2.453096	 228.815000 	 
2.456531	 221.626000 	 
2.459966	 226.721000 	 
2.463401	 231.996000 	 
2.466836	 228.180000 	 
2.470272	 227.460000 	 
2.473707	 220.749000 	 
2.477142	 218.278000 	 
2.480577	 220.691000 	 
2.484012	 224.998000 	 
2.487447	 222.719000 	 
2.490882	 223.424000 	 
2.494318	 220.408000 	 
2.497753	 216.398000 	 
2.501188	 212.787000 	 
2.504623	 209.360000 	 
2.508058	 217.554000 	 
2.511493	 220.803000 	 
2.514928	 213.688000 	 
2.518363	 211.515000 	 
2.521798	 209.945000 	 
2.525234	 210.881000 	 
2.528669	 212.470000 	 
2.532104	 213.177000 	 
2.535539	 220.734000 	 
2.538974	 226.297000 	 
2.542409	 222.742000 	 
2.545844	 218.774000 	 
2.549279	 217.985000 	 
2.552715	 218.963000 	 
2.556150	 214.995000 	 
2.559585	 210.154000 	 
2.563020	 208.806000 	 
2.566455	 211.104000 	 
2.569890	 216.453000 	 
2.573325	 213.717000 	 
2.576760	 210.731000 	 
2.580195	 209.083000 	 
2.583631	 214.958000 	 
2.587066	 215.424000 	 
2.590501	 212.495000 	 
2.593936	 213.114000 	 
2.597371	 211.926000 	 
2.600806	 211.385000 	 
2.604241	 205.527000 	 
2.607677	 210.521000 	 
2.611112	 211.748000 	 
2.614547	 207.940000 	 
2.617982	 203.562000 	 
2.621417	 204.125000 	 
2.624852	 204.247000 	 
2.628287	 207.906000 	 
2.631723	 204.970000 	 
2.635158	 200.913000 	 
2.638593	 205.935000 	 
2.642028	 207.817000 	 
2.645463	 213.627000 	 
2.648898	 209.278000 	 
2.652333	 201.698000 	 
2.655768	 205.343000 	 
2.659203	 207.160000 	 
2.662638	 205.553000 	 
2.666074	 206.098000 	 
2.669509	 206.450000 	 
2.672944	 208.944000 	 
2.676379	 208.916000 	 
2.679814	 206.767000 	 
2.683249	 207.788000 	 
2.686684	 211.025000 	 
2.690120	 210.525000 	 
2.693555	 209.531000 	 
2.696990	 209.744000 	 
2.700425	 210.680000 	 
2.703860	 207.987000 	 
2.707295	 205.059000 	 
2.710730	 199.088000 	 
2.714165	 197.787000 	 
2.717600	 195.774000 	 
2.721036	 199.260000 	 
2.724471	 205.025000 	 
2.727906	 209.504000 	 
2.731341	 209.338000 	 
2.734776	 204.821000 	 
2.738211	 201.844000 	 
2.741646	 203.017000 	 
2.745081	 208.685000 	 
2.748517	 209.630000 	 
2.751952	 208.459000 	 
2.755387	 209.540000 	 
2.758822	 207.576000 	 
2.762257	 209.655000 	 
2.765692	 211.349000 	 
2.769127	 208.659000 	 
2.772562	 203.263000 	 
2.775997	 199.491000 	 
2.779433	 202.116000 	 
2.782868	 205.049000 	 
2.786303	 208.102000 	 
2.789738	 209.593000 	 
2.793173	 211.787000 	 
2.796608	 211.089000 	 
2.800043	 215.225000 	 
2.803479	 217.409000 	 
2.806914	 218.836000 	 
2.810349	 222.017000 	 
2.813784	 218.813000 	 
2.817219	 217.933000 	 
2.820654	 225.304000 	 
2.824089	 228.884000 	 
2.827524	 226.632000 	 
2.830959	 236.118000 	 
2.834395	 250.954000 	 
2.837830	 274.317000 	 
2.841265	 319.625000 	 
2.844700	 423.732000 	 
2.848135	 636.993000 	 
2.851570	 1027.490000 	 
2.855005	 1597.460000 	 
2.858440	 2062.730000 	 
2.861876	 2254.800000 	 
2.865311	 1883.860000 	 
2.868746	 1325.180000 	 
2.872181	 795.234000 	 
2.875616	 501.486000 	 
2.879051	 361.411000 	 
2.882486	 286.665000 	 
2.885921	 249.920000 	 
2.889356	 237.481000 	 
2.892792	 231.005000 	 
2.896227	 232.067000 	 
2.899662	 233.051000 	 
2.903097	 225.169000 	 
2.906532	 218.377000 	 
2.909967	 217.109000 	 
2.913402	 212.537000 	 
2.916838	 214.533000 	 
2.920273	 221.507000 	 
2.923708	 218.366000 	 
2.927143	 216.182000 	 
2.930578	 217.996000 	 
2.934013	 217.673000 	 
2.937448	 218.657000 	 
2.940883	 219.790000 	 
2.944318	 219.008000 	 
2.947753	 218.203000 	 
2.951189	 218.787000 	 
2.954624	 211.012000 	 
2.958059	 205.280000 	 
2.961494	 207.130000 	 
2.964929	 208.417000 	 
2.968364	 209.754000 	 
2.971799	 210.804000 	 
2.975235	 211.949000 	 
2.978670	 206.319000 	 
2.982105	 203.910000 	 
2.985540	 209.283000 	 
2.988975	 214.433000 	 
2.992410	 212.696000 	 
2.995845	 205.713000 	 
2.999280	 199.347000 	 
3.002715	 203.293000 	 
3.006150	 210.692000 	 
3.009586	 207.664000 	 
3.013021	 203.555000 	 
3.016456	 204.033000 	 
3.019891	 203.783000 	 
3.023326	 206.339000 	 
3.026761	 204.528000 	 
3.030196	 205.202000 	 
3.033632	 207.097000 	 
3.037067	 202.674000 	 
3.040502	 200.483000 	 
3.043937	 199.145000 	 
3.047372	 202.856000 	 
3.050807	 209.994000 	 
3.054242	 211.843000 	 
3.057678	 214.451000 	 
3.061113	 209.431000 	 
3.064548	 205.480000 	 
3.067983	 209.221000 	 
3.071418	 206.852000 	 
3.074853	 208.787000 	 
3.078288	 211.440000 	 
3.081723	 210.695000 	 
3.085158	 210.249000 	 
3.088594	 206.713000 	 
3.092029	 201.094000 	 
3.095464	 199.437000 	 
3.098899	 200.434000 	 
3.102334	 208.045000 	 
3.105769	 209.091000 	 
3.109204	 213.431000 	 
3.112639	 213.541000 	 
3.116075	 202.528000 	 
3.119510	 201.023000 	 
3.122945	 200.511000 	 
3.126380	 201.136000 	 
3.129815	 203.967000 	 
3.133250	 208.715000 	 
3.136685	 207.041000 	 
3.140120	 207.272000 	 
3.143555	 212.064000 	 
3.146990	 215.633000 	 
3.150426	 217.508000 	 
3.153861	 214.560000 	 
3.157296	 215.626000 	 
3.160731	 214.831000 	 
3.164166	 212.369000 	 
3.167601	 215.416000 	 
3.171037	 212.538000 	 
3.174472	 210.520000 	 
3.177907	 209.916000 	 
3.181342	 210.319000 	 
3.184777	 210.038000 	 
3.188212	 210.433000 	 
3.191647	 214.201000 	 
3.195082	 214.735000 	 
3.198517	 215.203000 	 
3.201953	 214.873000 	 
3.205388	 216.211000 	 
3.208823	 215.210000 	 
3.212258	 220.718000 	 
3.215693	 225.196000 	 
3.219128	 231.579000 	 
3.222563	 237.975000 	 
3.225998	 253.857000 	 
3.229433	 292.311000 	 
3.232869	 388.284000 	 
3.236304	 558.236000 	 
3.239739	 806.933000 	 
3.243174	 1089.470000 	 
3.246609	 1211.890000 	 
3.250044	 1161.070000 	 
3.253479	 952.029000 	 
3.256914	 753.769000 	 
3.260349	 584.638000 	 
3.263785	 462.748000 	 
3.267220	 394.430000 	 
3.270655	 353.015000 	 
3.274090	 325.581000 	 
3.277525	 302.418000 	 
3.280960	 293.546000 	 
3.284396	 290.146000 	 
3.287831	 283.363000 	 
3.291266	 278.761000 	 
3.294701	 278.670000 	 
3.298136	 282.229000 	 
3.301571	 285.969000 	 
3.305006	 293.731000 	 
3.308441	 309.692000 	 
3.311876	 323.446000 	 
3.315311	 347.890000 	 
3.318747	 410.641000 	 
3.322182	 519.188000 	 
3.325617	 704.498000 	 
3.329052	 1035.010000 	 
3.332487	 1382.230000 	 
3.335922	 1614.940000 	 
3.339357	 1591.170000 	 
3.342792	 1268.480000 	 
3.346228	 890.106000 	 
3.349663	 575.202000 	 
3.353098	 404.740000 	 
3.356533	 314.068000 	 
3.359968	 270.193000 	 
3.363403	 250.162000 	 
3.366838	 241.086000 	 
3.370273	 239.461000 	 
3.373709	 238.884000 	 
3.377144	 234.340000 	 
3.380579	 228.791000 	 
3.384014	 224.535000 	 
3.387449	 221.455000 	 
3.390884	 221.013000 	 
3.394319	 221.554000 	 
3.397754	 221.470000 	 
3.401190	 225.572000 	 
3.404625	 228.255000 	 
3.408060	 223.840000 	 
3.411495	 217.085000 	 
3.414930	 217.277000 	 
3.418365	 221.838000 	 
3.421800	 222.441000 	 
3.425235	 215.404000 	 
3.428670	 209.091000 	 
3.432106	 208.274000 	 
3.435541	 210.524000 	 
3.438976	 213.181000 	 
3.442411	 217.861000 	 
3.445846	 219.421000 	 
3.449281	 221.592000 	 
3.452716	 218.568000 	 
3.456151	 217.705000 	 
3.459587	 215.951000 	 
3.463022	 216.762000 	 
3.466457	 218.217000 	 
3.469892	 216.515000 	 
3.473327	 207.667000 	 
3.476762	 204.651000 	 
3.480197	 204.918000 	 
3.483633	 212.403000 	 
3.487068	 217.173000 	 
3.490503	 215.671000 	 
3.493938	 214.294000 	 
3.497373	 215.140000 	 
3.500808	 213.546000 	 
3.504243	 212.427000 	 
3.507678	 209.004000 	 
3.511113	 209.343000 	 
3.514549	 213.103000 	 
3.517984	 211.907000 	 
3.521419	 209.440000 	 
3.524854	 209.161000 	 
3.528289	 210.685000 	 
3.531724	 210.658000 	 
3.535159	 211.756000 	 
3.538594	 212.486000 	 
3.542030	 213.254000 	 
3.545465	 212.112000 	 
3.548900	 216.623000 	 
3.552335	 219.553000 	 
3.555770	 216.355000 	 
3.559205	 213.545000 	 
3.562640	 212.208000 	 
3.566075	 215.029000 	 
3.569510	 215.340000 	 
3.572946	 212.114000 	 
3.576381	 210.391000 	 
3.579816	 217.543000 	 
3.583251	 217.539000 	 
3.586686	 220.272000 	 
3.590121	 223.051000 	 
3.593556	 222.785000 	 
3.596992	 224.584000 	 
3.600427	 226.578000 	 
3.603862	 222.812000 	 
3.607297	 222.038000 	 
3.610732	 225.175000 	 
3.614167	 228.923000 	 
3.617602	 233.644000 	 
3.621037	 237.790000 	 
3.624472	 247.573000 	 
3.627908	 257.325000 	 
3.631343	 286.102000 	 
3.634778	 359.549000 	 
3.638213	 486.773000 	 
3.641648	 667.091000 	 
3.645083	 848.954000 	 
3.648518	 933.749000 	 
3.651953	 901.226000 	 
3.655389	 758.116000 	 
3.658824	 606.326000 	 
3.662259	 476.958000 	 
3.665694	 388.029000 	 
3.669129	 336.587000 	 
3.672564	 308.522000 	 
3.675999	 296.445000 	 
3.679434	 291.800000 	 
3.682869	 291.331000 	 
3.686305	 295.892000 	 
3.689740	 317.379000 	 
3.693175	 342.678000 	 
3.696610	 380.192000 	 
3.700045	 439.750000 	 
3.703480	 506.323000 	 
3.706915	 563.847000 	 
3.710351	 574.896000 	 
3.713786	 542.588000 	 
3.717221	 489.497000 	 
3.720656	 457.037000 	 
3.724091	 461.173000 	 
3.727526	 475.629000 	 
3.730961	 478.228000 	 
3.734396	 445.838000 	 
3.737831	 385.954000 	 
3.741267	 314.988000 	 
3.744702	 279.105000 	 
3.748137	 254.237000 	 
3.751572	 237.710000 	 
3.755007	 230.685000 	 
3.758442	 229.338000 	 
3.761877	 227.118000 	 
3.765312	 230.043000 	 
3.768748	 227.874000 	 
3.772183	 227.844000 	 
3.775618	 226.916000 	 
3.779053	 222.862000 	 
3.782488	 223.886000 	 
3.785923	 225.356000 	 
3.789358	 224.908000 	 
3.792793	 226.836000 	 
3.796228	 227.079000 	 
3.799663	 229.349000 	 
3.803099	 229.307000 	 
3.806534	 225.544000 	 
3.809969	 221.361000 	 
3.813404	 222.365000 	 
3.816839	 226.436000 	 
3.820274	 227.694000 	 
3.823710	 225.885000 	 
3.827145	 220.619000 	 
3.830580	 218.258000 	 
3.834015	 218.732000 	 
3.837450	 217.862000 	 
3.840885	 219.983000 	 
3.844320	 223.619000 	 
3.847755	 221.407000 	 
3.851190	 222.121000 	 
3.854626	 223.531000 	 
3.858061	 222.226000 	 
3.861496	 218.718000 	 
3.864931	 219.855000 	 
3.868366	 220.038000 	 
3.871801	 222.880000 	 
3.875236	 228.999000 	 
3.878671	 230.390000 	 
3.882106	 232.239000 	 
3.885542	 226.500000 	 
3.888977	 226.752000 	 
3.892412	 230.008000 	 
3.895847	 228.173000 	 
3.899282	 227.036000 	 
3.902717	 225.355000 	 
3.906153	 223.890000 	 
3.909587	 221.412000 	 
3.913022	 220.169000 	 
3.916458	 226.444000 	 
3.919893	 226.702000 	 
3.923328	 228.716000 	 
3.926763	 232.144000 	 
3.930198	 226.582000 	 
3.933633	 228.519000 	 
3.937069	 235.207000 	 
3.940504	 235.972000 	 
3.943939	 232.642000 	 
3.947374	 235.069000 	 
3.950809	 238.640000 	 
3.954244	 244.633000 	 
3.957679	 247.556000 	 
3.961114	 251.111000 	 
3.964549	 247.040000 	 
3.967984	 243.947000 	 
3.971420	 252.877000 	 
3.974855	 255.318000 	 
3.978290	 261.614000 	 
3.981725	 271.226000 	 
3.985160	 289.831000 	 
3.988595	 324.059000 	 
3.992030	 396.555000 	 
3.995465	 534.590000 	 
3.998901	 774.501000 	 
4.002336	 1156.440000 	 
4.005771	 1540.680000 	 
4.009206	 1804.270000 	 
4.012641	 1850.980000 	 
4.016076	 1643.340000 	 
4.019511	 1340.000000 	 
4.022946	 1046.330000 	 
4.026382	 821.563000 	 
4.029817	 677.990000 	 
4.033252	 594.773000 	 
4.036687	 563.419000 	 
4.040122	 563.021000 	 
4.043557	 590.114000 	 
4.046992	 687.275000 	 
4.050427	 855.396000 	 
4.053863	 1122.590000 	 
4.057298	 1542.190000 	 
4.060733	 1980.520000 	 
4.064168	 2336.770000 	 
4.067603	 2427.920000 	 
4.071038	 2144.010000 	 
4.074473	 1670.470000 	 
4.077909	 1141.030000 	 
4.081344	 767.630000 	 
4.084779	 530.874000 	 
4.088214	 394.688000 	 
4.091649	 328.691000 	 
4.095084	 295.166000 	 
4.098519	 276.845000 	 
4.101954	 272.724000 	 
4.105390	 268.949000 	 
4.108825	 262.657000 	 
4.112260	 253.301000 	 
4.115695	 248.268000 	 
4.119130	 245.141000 	 
4.122565	 245.039000 	 
4.126000	 243.729000 	 
4.129435	 239.608000 	 
4.132870	 239.128000 	 
4.136305	 239.633000 	 
4.139741	 233.894000 	 
4.143176	 236.674000 	 
4.146611	 237.266000 	 
4.150046	 234.381000 	 
4.153481	 230.535000 	 
4.156916	 228.005000 	 
4.160351	 228.736000 	 
4.163786	 234.281000 	 
4.167222	 237.816000 	 
4.170657	 235.444000 	 
4.174092	 233.870000 	 
4.177527	 227.055000 	 
4.180962	 225.879000 	 
4.184397	 221.215000 	 
4.187832	 224.350000 	 
4.191268	 220.879000 	 
4.194703	 221.199000 	 
4.198138	 223.144000 	 
4.201573	 221.368000 	 
4.205008	 221.419000 	 
4.208443	 221.466000 	 
4.211878	 221.600000 	 
4.215313	 222.915000 	 
4.218749	 223.507000 	 
4.222184	 222.402000 	 
4.225619	 223.520000 	 
4.229054	 220.771000 	 
4.232489	 219.060000 	 
4.235924	 218.657000 	 
4.239359	 219.807000 	 
4.242794	 217.751000 	 
4.246229	 217.373000 	 
4.249664	 217.732000 	 
4.253099	 213.305000 	 
4.256535	 209.711000 	 
4.259970	 214.249000 	 
4.263405	 218.521000 	 
4.266840	 220.662000 	 
4.270275	 216.337000 	 
4.273710	 215.134000 	 
4.277145	 214.387000 	 
4.280581	 217.646000 	 
4.284016	 219.918000 	 
4.287451	 222.596000 	 
4.290886	 222.432000 	 
4.294321	 222.473000 	 
4.297756	 223.405000 	 
4.301191	 221.664000 	 
4.304627	 221.289000 	 
4.308062	 218.435000 	 
4.311497	 217.437000 	 
4.314932	 212.790000 	 
4.318367	 209.430000 	 
4.321802	 219.065000 	 
4.325237	 224.552000 	 
4.328672	 219.519000 	 
4.332108	 217.660000 	 
4.335543	 217.573000 	 
4.338978	 217.075000 	 
4.342413	 212.026000 	 
4.345848	 208.064000 	 
4.349283	 205.454000 	 
4.352718	 211.938000 	 
4.356153	 213.236000 	 
4.359589	 214.739000 	 
4.363023	 213.648000 	 
4.366458	 212.683000 	 
4.369894	 214.998000 	 
4.373329	 216.076000 	 
4.376764	 212.111000 	 
4.380199	 212.283000 	 
4.383634	 213.980000 	 
4.387069	 213.340000 	 
4.390504	 210.505000 	 
4.393940	 211.931000 	 
4.397375	 215.416000 	 
4.400810	 218.847000 	 
4.404245	 215.209000 	 
4.407680	 210.977000 	 
4.411115	 212.549000 	 
4.414550	 215.923000 	 
4.417985	 216.670000 	 
4.421421	 215.087000 	 
4.424856	 214.439000 	 
4.428291	 210.372000 	 
4.431726	 209.640000 	 
4.435161	 211.632000 	 
4.438596	 216.428000 	 
4.442031	 219.637000 	 
4.445467	 219.654000 	 
4.448902	 217.564000 	 
4.452337	 215.191000 	 
4.455772	 215.862000 	 
4.459207	 216.871000 	 
4.462642	 214.365000 	 
4.466077	 216.332000 	 
4.469513	 217.263000 	 
4.472948	 211.260000 	 
4.476383	 210.618000 	 
4.479818	 213.043000 	 
4.483252	 209.482000 	 
4.486688	 212.436000 	 
4.490123	 220.483000 	 
4.493558	 221.341000 	 
4.496993	 219.900000 	 
4.500428	 217.478000 	 
4.503863	 215.457000 	 
4.507299	 216.497000 	 
4.510734	 214.551000 	 
4.514169	 208.082000 	 
4.517604	 207.594000 	 
4.521039	 206.368000 	 
4.524474	 207.114000 	 
4.527909	 208.443000 	 
4.531344	 211.482000 	 
4.534780	 213.723000 	 
4.538215	 219.039000 	 
4.541650	 220.602000 	 
4.545085	 216.409000 	 
4.548520	 213.457000 	 
4.551955	 216.040000 	 
4.555390	 218.820000 	 
4.558826	 218.488000 	 
4.562261	 217.340000 	 
4.565696	 219.237000 	 
4.569131	 220.367000 	 
4.572566	 220.749000 	 
4.576001	 219.511000 	 
4.579436	 218.707000 	 
4.582871	 217.348000 	 
4.586307	 215.162000 	 
4.589742	 214.919000 	 
4.593177	 216.292000 	 
4.596612	 219.386000 	 
4.600047	 223.000000 	 
4.603482	 224.813000 	 
4.606917	 225.406000 	 
4.610352	 224.557000 	 
4.613787	 226.134000 	 
4.617222	 226.231000 	 
4.620657	 230.281000 	 
4.624093	 234.953000 	 
4.627528	 252.272000 	 
4.630963	 279.960000 	 
4.634398	 339.385000 	 
4.637833	 439.778000 	 
4.641268	 586.385000 	 
4.644703	 799.603000 	 
4.648139	 996.328000 	 
4.651574	 1123.560000 	 
4.655009	 1135.420000 	 
4.658444	 1020.500000 	 
4.661879	 853.707000 	 
4.665314	 676.027000 	 
4.668749	 532.274000 	 
4.672185	 433.396000 	 
4.675620	 363.512000 	 
4.679055	 319.463000 	 
4.682490	 294.012000 	 
4.685925	 278.858000 	 
4.689360	 272.123000 	 
4.692795	 274.985000 	 
4.696230	 282.783000 	 
4.699666	 294.346000 	 
4.703101	 318.566000 	 
4.706536	 354.803000 	 
4.709971	 407.297000 	 
4.713406	 483.707000 	 
4.716841	 547.863000 	 
4.720276	 572.904000 	 
4.723711	 537.483000 	 
4.727146	 466.245000 	 
4.730581	 380.233000 	 
4.734016	 316.197000 	 
4.737452	 274.188000 	 
4.740887	 246.899000 	 
4.744322	 234.827000 	 
4.747757	 229.995000 	 
4.751192	 225.240000 	 
4.754627	 224.072000 	 
4.758062	 222.641000 	 
4.761497	 225.766000 	 
4.764933	 223.473000 	 
4.768368	 218.514000 	 
4.771803	 216.582000 	 
4.775238	 217.730000 	 
4.778673	 215.987000 	 
4.782108	 215.064000 	 
4.785543	 218.588000 	 
4.788979	 218.504000 	 
4.792414	 215.291000 	 
4.795849	 216.133000 	 
4.799284	 217.725000 	 
4.802719	 217.041000 	 
4.806154	 214.091000 	 
4.809589	 214.783000 	 
4.813025	 214.432000 	 
4.816460	 218.934000 	 
4.819895	 216.116000 	 
4.823330	 212.693000 	 
4.826765	 214.150000 	 
4.830200	 217.151000 	 
4.833635	 218.162000 	 
4.837071	 219.773000 	 
4.840506	 218.670000 	 
4.843940	 219.386000 	 
4.847375	 221.068000 	 
4.850810	 222.043000 	 
4.854246	 232.641000 	 
4.857681	 242.241000 	 
4.861116	 257.102000 	 
4.864551	 280.240000 	 
4.867986	 296.385000 	 
4.871421	 303.058000 	 
4.874856	 303.667000 	 
4.878292	 293.575000 	 
4.881727	 275.784000 	 
4.885162	 256.657000 	 
4.888597	 243.867000 	 
4.892032	 236.115000 	 
4.895467	 232.073000 	 
4.898902	 232.064000 	 
4.902338	 233.312000 	 
4.905773	 232.929000 	 
4.909208	 232.181000 	 
4.912643	 232.141000 	 
4.916078	 240.429000 	 
4.919513	 257.654000 	 
4.922948	 283.309000 	 
4.926384	 323.204000 	 
4.929819	 387.761000 	 
4.933254	 459.030000 	 
4.936689	 531.228000 	 
4.940124	 583.593000 	 
4.943559	 588.150000 	 
4.946994	 551.182000 	 
4.950429	 483.353000 	 
4.953865	 411.415000 	 
4.957300	 350.044000 	 
4.960735	 305.009000 	 
4.964169	 279.896000 	 
4.967605	 270.622000 	 
4.971040	 268.795000 	 
4.974475	 272.262000 	 
4.977910	 280.088000 	 
4.981345	 290.811000 	 
4.984780	 298.249000 	 
4.988215	 301.141000 	 
4.991651	 300.326000 	 
4.995086	 295.183000 	 
4.998521	 283.554000 	 
5.001956	 271.624000 	 
5.005391	 262.846000 	 
5.008826	 254.942000 	 
5.012261	 243.430000 	 
5.015696	 233.713000 	 
5.019132	 225.195000 	 
5.022567	 215.666000 	 
5.026002	 214.718000 	 
5.029437	 215.220000 	 
5.032872	 212.482000 	 
5.036307	 209.670000 	 
5.039743	 207.607000 	 
5.043178	 207.615000 	 
5.046613	 211.105000 	 
5.050048	 215.236000 	 
5.053483	 213.375000 	 
5.056918	 211.991000 	 
5.060353	 213.453000 	 
5.063788	 213.355000 	 
5.067223	 211.959000 	 
5.070659	 214.023000 	 
5.074094	 218.644000 	 
5.077529	 216.637000 	 
5.080964	 215.124000 	 
5.084399	 217.246000 	 
5.087834	 218.493000 	 
5.091269	 215.784000 	 
5.094704	 214.688000 	 
5.098139	 213.051000 	 
5.101574	 214.185000 	 
5.105010	 221.809000 	 
5.108445	 221.836000 	 
5.111880	 220.109000 	 
5.115315	 222.152000 	 
5.118750	 228.356000 	 
5.122185	 239.881000 	 
5.125620	 248.165000 	 
5.129055	 262.085000 	 
