1.010345	 229.874000 	 
1.013780	 225.415000 	 
1.017215	 228.702000 	 
1.020650	 232.471000 	 
1.024086	 233.499000 	 
1.027521	 236.562000 	 
1.030956	 237.349000 	 
1.034391	 233.136000 	 
1.037826	 227.929000 	 
1.041261	 224.908000 	 
1.044696	 225.226000 	 
1.048132	 226.581000 	 
1.051567	 230.316000 	 
1.055002	 235.881000 	 
1.058437	 235.736000 	 
1.061872	 228.483000 	 
1.065307	 224.089000 	 
1.068742	 222.411000 	 
1.072177	 219.998000 	 
1.075612	 219.666000 	 
1.079048	 225.675000 	 
1.082483	 229.519000 	 
1.085918	 231.867000 	 
1.089353	 234.107000 	 
1.092788	 236.014000 	 
1.096223	 227.643000 	 
1.099658	 223.436000 	 
1.103093	 225.634000 	 
1.106529	 223.520000 	 
1.109964	 216.794000 	 
1.113399	 206.079000 	 
1.116834	 210.899000 	 
1.120269	 217.211000 	 
1.123704	 229.803000 	 
1.127139	 232.621000 	 
1.130574	 223.522000 	 
1.134009	 217.298000 	 
1.137445	 220.701000 	 
1.140880	 223.930000 	 
1.144315	 227.155000 	 
1.147750	 225.965000 	 
1.151185	 221.355000 	 
1.154620	 224.454000 	 
1.158055	 224.591000 	 
1.161490	 215.878000 	 
1.164926	 212.677000 	 
1.168361	 216.682000 	 
1.171796	 215.389000 	 
1.175231	 212.617000 	 
1.178666	 208.583000 	 
1.182101	 214.727000 	 
1.185536	 222.786000 	 
1.188971	 223.067000 	 
1.192406	 227.570000 	 
1.195842	 229.897000 	 
1.199277	 225.598000 	 
1.202712	 222.854000 	 
1.206147	 223.204000 	 
1.209582	 233.257000 	 
1.213017	 231.233000 	 
1.216452	 223.156000 	 
1.219888	 216.238000 	 
1.223323	 216.326000 	 
1.226758	 218.818000 	 
1.230193	 224.239000 	 
1.233628	 228.949000 	 
1.237063	 231.183000 	 
1.240498	 224.478000 	 
1.243933	 231.585000 	 
1.247369	 227.259000 	 
1.250804	 227.124000 	 
1.254239	 219.632000 	 
1.257674	 217.339000 	 
1.261109	 216.520000 	 
1.264544	 217.999000 	 
1.267979	 226.651000 	 
1.271414	 224.439000 	 
1.274849	 219.706000 	 
1.278285	 216.575000 	 
1.281720	 225.418000 	 
1.285155	 219.351000 	 
1.288590	 218.005000 	 
1.292025	 215.423000 	 
1.295460	 215.723000 	 
1.298895	 218.827000 	 
1.302330	 216.404000 	 
1.305765	 221.270000 	 
1.309201	 226.177000 	 
1.312636	 225.816000 	 
1.316071	 225.349000 	 
1.319506	 223.820000 	 
1.322941	 218.529000 	 
1.326376	 218.126000 	 
1.329811	 221.309000 	 
1.333247	 221.504000 	 
1.336682	 221.105000 	 
1.340117	 221.461000 	 
1.343552	 223.880000 	 
1.346987	 218.750000 	 
1.350422	 215.485000 	 
1.353857	 225.483000 	 
1.357292	 232.136000 	 
1.360727	 231.075000 	 
1.364163	 225.648000 	 
1.367598	 222.383000 	 
1.371033	 220.553000 	 
1.374468	 221.999000 	 
1.377903	 223.732000 	 
1.381338	 224.658000 	 
1.384773	 228.623000 	 
1.388208	 230.938000 	 
1.391644	 222.445000 	 
1.395079	 216.343000 	 
1.398514	 212.597000 	 
1.401949	 216.592000 	 
1.405384	 221.852000 	 
1.408819	 221.400000 	 
1.412254	 222.259000 	 
1.415689	 231.303000 	 
1.419124	 224.462000 	 
1.422560	 215.848000 	 
1.425995	 215.557000 	 
1.429430	 223.294000 	 
1.432865	 222.504000 	 
1.436300	 224.400000 	 
1.439735	 220.772000 	 
1.443170	 217.866000 	 
1.446605	 225.310000 	 
1.450041	 224.360000 	 
1.453476	 224.543000 	 
1.456911	 218.525000 	 
1.460346	 223.101000 	 
1.463781	 222.932000 	 
1.467216	 220.323000 	 
1.470651	 225.372000 	 
1.474087	 227.004000 	 
1.477521	 225.216000 	 
1.480957	 228.917000 	 
1.484392	 228.614000 	 
1.487827	 227.248000 	 
1.491262	 230.807000 	 
1.494697	 231.046000 	 
1.498132	 226.600000 	 
1.501567	 228.032000 	 
1.505003	 228.192000 	 
1.508438	 229.176000 	 
1.511873	 232.675000 	 
1.515308	 233.032000 	 
1.518743	 235.228000 	 
1.522178	 236.148000 	 
1.525613	 230.911000 	 
1.529048	 223.290000 	 
1.532484	 225.408000 	 
1.535919	 220.794000 	 
1.539354	 219.107000 	 
1.542789	 218.664000 	 
1.546224	 225.068000 	 
1.549659	 227.419000 	 
1.553094	 229.254000 	 
1.556529	 225.650000 	 
1.559965	 222.042000 	 
1.563400	 222.657000 	 
1.566835	 229.364000 	 
1.570270	 237.816000 	 
1.573705	 236.835000 	 
1.577140	 235.591000 	 
1.580575	 232.948000 	 
1.584010	 238.011000 	 
1.587446	 248.411000 	 
1.590881	 251.995000 	 
1.594316	 249.368000 	 
1.597751	 251.483000 	 
1.601186	 264.503000 	 
1.604621	 284.111000 	 
1.608056	 328.862000 	 
1.611491	 463.539000 	 
1.614926	 726.223000 	 
1.618362	 1039.850000 	 
1.621797	 1322.360000 	 
1.625232	 1317.720000 	 
1.628667	 1114.860000 	 
1.632102	 782.987000 	 
1.635537	 593.388000 	 
1.638972	 473.611000 	 
1.642407	 417.044000 	 
1.645843	 403.300000 	 
1.649278	 416.007000 	 
1.652713	 460.083000 	 
1.656148	 597.548000 	 
1.659583	 855.763000 	 
1.663018	 1249.160000 	 
1.666453	 1478.540000 	 
1.669888	 1435.640000 	 
1.673324	 1096.380000 	 
1.676759	 672.790000 	 
1.680194	 423.032000 	 
1.683629	 305.337000 	 
1.687064	 272.963000 	 
1.690499	 259.714000 	 
1.693934	 248.590000 	 
1.697369	 244.420000 	 
1.700805	 242.779000 	 
1.704240	 245.215000 	 
1.707675	 241.593000 	 
1.711110	 245.811000 	 
1.714545	 252.181000 	 
1.717980	 245.815000 	 
1.721415	 242.581000 	 
1.724850	 239.579000 	 
1.728285	 238.983000 	 
1.731721	 236.690000 	 
1.735156	 227.077000 	 
1.738591	 221.666000 	 
1.742026	 218.992000 	 
1.745461	 217.053000 	 
1.748896	 217.846000 	 
1.752331	 220.643000 	 
1.755766	 220.384000 	 
1.759202	 217.823000 	 
1.762637	 221.413000 	 
1.766072	 225.808000 	 
1.769507	 226.483000 	 
1.772942	 221.934000 	 
1.776377	 227.648000 	 
1.779812	 235.580000 	 
1.783247	 232.288000 	 
1.786683	 222.819000 	 
1.790118	 215.754000 	 
1.793553	 223.860000 	 
1.796988	 221.502000 	 
1.800423	 217.354000 	 
1.803858	 217.074000 	 
1.807293	 216.895000 	 
1.810728	 219.352000 	 
1.814163	 215.132000 	 
1.817599	 211.849000 	 
1.821034	 218.939000 	 
1.824469	 228.352000 	 
1.827904	 224.514000 	 
1.831339	 222.967000 	 
1.834774	 228.783000 	 
1.838209	 227.353000 	 
1.841644	 228.352000 	 
1.845080	 227.557000 	 
1.848515	 220.133000 	 
1.851950	 218.349000 	 
1.855385	 216.814000 	 
1.858820	 218.626000 	 
1.862255	 220.790000 	 
1.865690	 221.232000 	 
1.869125	 219.828000 	 
1.872561	 214.502000 	 
1.875996	 210.285000 	 
1.879431	 216.286000 	 
1.882866	 213.613000 	 
1.886301	 214.050000 	 
1.889736	 217.871000 	 
1.893171	 214.119000 	 
1.896606	 216.191000 	 
1.900041	 220.368000 	 
1.903477	 217.162000 	 
1.906912	 217.244000 	 
1.910347	 217.616000 	 
1.913782	 219.079000 	 
1.917217	 220.591000 	 
1.920652	 225.132000 	 
1.924087	 218.344000 	 
1.927523	 215.513000 	 
1.930958	 214.887000 	 
1.934393	 208.798000 	 
1.937828	 201.467000 	 
1.941263	 198.832000 	 
1.944698	 204.755000 	 
1.948133	 214.684000 	 
1.951568	 221.708000 	 
1.955003	 222.445000 	 
1.958439	 221.708000 	 
1.961874	 220.393000 	 
1.965309	 217.910000 	 
1.968744	 215.923000 	 
1.972179	 213.585000 	 
1.975614	 213.300000 	 
1.979049	 215.581000 	 
1.982485	 223.811000 	 
1.985920	 226.523000 	 
1.989355	 225.580000 	 
1.992790	 223.013000 	 
1.996225	 219.538000 	 
1.999660	 217.767000 	 
2.003095	 223.340000 	 
2.006530	 223.187000 	 
2.009965	 216.126000 	 
2.013401	 217.148000 	 
2.016836	 223.260000 	 
2.020271	 224.631000 	 
2.023706	 225.202000 	 
2.027141	 224.374000 	 
2.030576	 214.384000 	 
2.034011	 214.339000 	 
2.037446	 216.968000 	 
2.040881	 215.218000 	 
2.044316	 217.131000 	 
2.047752	 217.412000 	 
2.051187	 214.535000 	 
2.054622	 220.699000 	 
2.058057	 223.972000 	 
2.061492	 221.212000 	 
2.064927	 224.198000 	 
2.068363	 225.816000 	 
2.071798	 227.227000 	 
2.075233	 222.633000 	 
2.078668	 223.269000 	 
2.082103	 228.257000 	 
2.085538	 227.517000 	 
2.088973	 221.671000 	 
2.092408	 223.184000 	 
2.095843	 226.575000 	 
2.099279	 221.306000 	 
2.102714	 220.464000 	 
2.106149	 219.965000 	 
2.109584	 222.893000 	 
2.113019	 219.331000 	 
2.116454	 217.683000 	 
2.119889	 220.170000 	 
2.123324	 222.092000 	 
2.126759	 224.307000 	 
2.130195	 222.960000 	 
2.133630	 218.567000 	 
2.137065	 217.108000 	 
2.140500	 222.166000 	 
2.143935	 227.259000 	 
2.147370	 224.502000 	 
2.150806	 217.836000 	 
2.154241	 218.385000 	 
2.157675	 219.081000 	 
2.161111	 225.667000 	 
2.164546	 229.082000 	 
2.167981	 231.809000 	 
2.171416	 235.211000 	 
2.174851	 237.959000 	 
2.178286	 234.629000 	 
2.181721	 229.036000 	 
2.185157	 238.787000 	 
2.188592	 240.445000 	 
2.192027	 242.158000 	 
2.195462	 239.061000 	 
2.198897	 237.495000 	 
2.202332	 241.057000 	 
2.205767	 238.697000 	 
2.209203	 239.054000 	 
2.212638	 238.348000 	 
2.216073	 233.256000 	 
2.219508	 236.554000 	 
2.222943	 235.092000 	 
2.226378	 240.074000 	 
2.229813	 249.482000 	 
2.233248	 251.166000 	 
2.236683	 250.420000 	 
2.240118	 253.087000 	 
2.243554	 258.663000 	 
2.246989	 256.757000 	 
2.250424	 251.213000 	 
2.253859	 251.943000 	 
2.257294	 260.421000 	 
2.260729	 261.601000 	 
2.264164	 265.668000 	 
2.267600	 268.726000 	 
2.271035	 282.425000 	 
2.274470	 296.116000 	 
2.277905	 305.384000 	 
2.281340	 308.359000 	 
2.284775	 309.222000 	 
2.288210	 319.648000 	 
2.291645	 330.138000 	 
2.295080	 342.397000 	 
2.298516	 373.477000 	 
2.301951	 418.317000 	 
2.305386	 506.082000 	 
2.308821	 707.345000 	 
2.312256	 1291.270000 	 
2.315691	 2623.090000 	 
2.319126	 4928.000000 	 
2.322561	 7921.580000 	 
2.325997	 9170.290000 	 
2.329432	 8627.570000 	 
2.332867	 6208.940000 	 
2.336302	 3956.930000 	 
2.339737	 2469.260000 	 
2.343172	 1795.950000 	 
2.346607	 1769.490000 	 
2.350042	 2171.180000 	 
2.353477	 2915.430000 	 
2.356913	 3487.450000 	 
2.360348	 3361.260000 	 
2.363783	 2589.460000 	 
2.367218	 1578.700000 	 
2.370653	 929.672000 	 
2.374088	 575.294000 	 
2.377523	 434.249000 	 
2.380959	 371.384000 	 
2.384394	 338.434000 	 
2.387829	 313.170000 	 
2.391264	 299.899000 	 
2.394699	 288.499000 	 
2.398134	 277.698000 	 
2.401569	 283.107000 	 
2.405004	 283.613000 	 
2.408439	 272.636000 	 
2.411875	 268.196000 	 
2.415310	 269.696000 	 
2.418745	 269.921000 	 
2.422180	 267.632000 	 
2.425615	 260.786000 	 
2.429050	 254.051000 	 
2.432485	 249.085000 	 
2.435920	 241.107000 	 
2.439356	 228.908000 	 
2.442791	 225.964000 	 
2.446226	 230.587000 	 
2.449661	 233.301000 	 
2.453096	 231.369000 	 
2.456531	 220.695000 	 
2.459966	 222.522000 	 
2.463401	 226.256000 	 
2.466836	 221.663000 	 
2.470272	 220.661000 	 
2.473707	 223.629000 	 
2.477142	 222.413000 	 
2.480577	 220.435000 	 
2.484012	 216.160000 	 
2.487447	 219.415000 	 
2.490882	 222.671000 	 
2.494318	 224.452000 	 
2.497753	 226.204000 	 
2.501188	 229.883000 	 
2.504623	 230.303000 	 
2.508058	 221.539000 	 
2.511493	 216.411000 	 
2.514928	 218.485000 	 
2.518363	 217.217000 	 
2.521798	 213.826000 	 
2.525234	 214.630000 	 
2.528669	 218.848000 	 
2.532104	 218.311000 	 
2.535539	 218.394000 	 
2.538974	 220.511000 	 
2.542409	 214.599000 	 
2.545844	 206.284000 	 
2.549279	 203.416000 	 
2.552715	 205.204000 	 
2.556150	 211.389000 	 
2.559585	 215.631000 	 
2.563020	 212.884000 	 
2.566455	 211.377000 	 
2.569890	 207.905000 	 
2.573325	 209.054000 	 
2.576760	 207.062000 	 
2.580195	 207.380000 	 
2.583631	 211.702000 	 
2.587066	 209.309000 	 
2.590501	 209.484000 	 
2.593936	 212.496000 	 
2.597371	 212.763000 	 
2.600806	 210.632000 	 
2.604241	 207.880000 	 
2.607677	 208.903000 	 
2.611112	 211.072000 	 
2.614547	 212.292000 	 
2.617982	 216.643000 	 
2.621417	 216.756000 	 
2.624852	 213.701000 	 
2.628287	 212.029000 	 
2.631723	 216.741000 	 
2.635158	 213.132000 	 
2.638593	 205.430000 	 
2.642028	 202.201000 	 
2.645463	 207.104000 	 
2.648898	 212.262000 	 
2.652333	 211.423000 	 
2.655768	 203.348000 	 
2.659203	 199.495000 	 
2.662638	 199.544000 	 
2.666074	 204.115000 	 
2.669509	 208.097000 	 
2.672944	 213.476000 	 
2.676379	 213.359000 	 
2.679814	 214.773000 	 
2.683249	 210.193000 	 
2.686684	 200.759000 	 
2.690120	 203.796000 	 
2.693555	 199.627000 	 
2.696990	 198.617000 	 
2.700425	 204.172000 	 
2.703860	 207.077000 	 
2.707295	 203.197000 	 
2.710730	 202.137000 	 
2.714165	 204.853000 	 
2.717600	 208.862000 	 
2.721036	 209.856000 	 
2.724471	 211.227000 	 
2.727906	 212.809000 	 
2.731341	 208.663000 	 
2.734776	 201.840000 	 
2.738211	 202.468000 	 
2.741646	 201.649000 	 
2.745081	 204.418000 	 
2.748517	 206.258000 	 
2.751952	 210.665000 	 
2.755387	 211.868000 	 
2.758822	 204.467000 	 
2.762257	 198.226000 	 
2.765692	 200.172000 	 
2.769127	 199.605000 	 
2.772562	 203.563000 	 
2.775997	 205.908000 	 
2.779433	 205.265000 	 
2.782868	 206.359000 	 
2.786303	 207.213000 	 
2.789738	 208.672000 	 
2.793173	 215.676000 	 
2.796608	 215.357000 	 
2.800043	 215.967000 	 
2.803479	 216.429000 	 
2.806914	 210.155000 	 
2.810349	 205.581000 	 
2.813784	 210.174000 	 
2.817219	 214.016000 	 
2.820654	 218.679000 	 
2.824089	 223.032000 	 
2.827524	 229.756000 	 
2.830959	 237.708000 	 
2.834395	 248.652000 	 
2.837830	 262.392000 	 
2.841265	 283.167000 	 
2.844700	 345.739000 	 
2.848135	 507.996000 	 
2.851570	 845.124000 	 
2.855005	 1402.810000 	 
2.858440	 1953.100000 	 
2.861876	 2313.940000 	 
2.865311	 2067.250000 	 
2.868746	 1525.010000 	 
2.872181	 938.922000 	 
2.875616	 570.404000 	 
2.879051	 385.647000 	 
2.882486	 292.908000 	 
2.885921	 256.430000 	 
2.889356	 242.085000 	 
2.892792	 232.051000 	 
2.896227	 222.340000 	 
2.899662	 222.379000 	 
2.903097	 220.774000 	 
2.906532	 216.778000 	 
2.909967	 218.789000 	 
2.913402	 217.715000 	 
2.916838	 209.158000 	 
2.920273	 216.244000 	 
2.923708	 218.470000 	 
2.927143	 217.720000 	 
2.930578	 219.543000 	 
2.934013	 214.372000 	 
2.937448	 208.686000 	 
2.940883	 210.780000 	 
2.944318	 212.633000 	 
2.947753	 210.955000 	 
2.951189	 212.384000 	 
2.954624	 211.616000 	 
2.958059	 214.752000 	 
2.961494	 214.640000 	 
2.964929	 209.851000 	 
2.968364	 210.833000 	 
2.971799	 207.037000 	 
2.975235	 210.664000 	 
2.978670	 212.177000 	 
2.982105	 212.928000 	 
2.985540	 207.177000 	 
2.988975	 205.747000 	 
2.992410	 206.692000 	 
2.995845	 206.189000 	 
2.999280	 208.335000 	 
3.002715	 212.402000 	 
3.006150	 208.566000 	 
3.009586	 205.980000 	 
3.013021	 208.944000 	 
3.016456	 211.773000 	 
3.019891	 208.939000 	 
3.023326	 205.635000 	 
3.026761	 203.147000 	 
3.030196	 207.843000 	 
3.033632	 213.406000 	 
3.037067	 218.585000 	 
3.040502	 220.226000 	 
3.043937	 214.195000 	 
3.047372	 210.781000 	 
3.050807	 213.876000 	 
3.054242	 211.532000 	 
3.057678	 209.693000 	 
3.061113	 213.755000 	 
3.064548	 212.414000 	 
3.067983	 210.912000 	 
3.071418	 205.603000 	 
3.074853	 203.020000 	 
3.078288	 200.416000 	 
3.081723	 205.781000 	 
3.085158	 210.741000 	 
3.088594	 215.646000 	 
3.092029	 209.566000 	 
3.095464	 205.974000 	 
3.098899	 207.329000 	 
3.102334	 206.165000 	 
3.105769	 206.061000 	 
3.109204	 203.897000 	 
3.112639	 203.135000 	 
3.116075	 204.788000 	 
3.119510	 203.949000 	 
3.122945	 203.237000 	 
3.126380	 202.356000 	 
3.129815	 198.480000 	 
3.133250	 202.226000 	 
3.136685	 210.302000 	 
3.140120	 217.637000 	 
3.143555	 219.789000 	 
3.146990	 216.945000 	 
3.150426	 214.548000 	 
3.153861	 217.688000 	 
3.157296	 217.596000 	 
3.160731	 211.096000 	 
3.164166	 207.123000 	 
3.167601	 206.912000 	 
3.171037	 207.570000 	 
3.174472	 211.743000 	 
3.177907	 212.656000 	 
3.181342	 215.138000 	 
3.184777	 214.468000 	 
3.188212	 216.440000 	 
3.191647	 219.044000 	 
3.195082	 217.340000 	 
3.198517	 216.667000 	 
3.201953	 221.975000 	 
3.205388	 221.952000 	 
3.208823	 219.980000 	 
3.212258	 223.152000 	 
3.215693	 226.331000 	 
3.219128	 233.209000 	 
3.222563	 242.229000 	 
3.225998	 260.181000 	 
3.229433	 294.170000 	 
3.232869	 382.426000 	 
3.236304	 540.264000 	 
3.239739	 757.759000 	 
3.243174	 1011.020000 	 
3.246609	 1111.560000 	 
3.250044	 1062.540000 	 
3.253479	 868.056000 	 
3.256914	 679.953000 	 
3.260349	 527.080000 	 
3.263785	 427.108000 	 
3.267220	 366.848000 	 
3.270655	 330.206000 	 
3.274090	 302.140000 	 
3.277525	 292.292000 	 
3.280960	 287.197000 	 
3.284396	 282.400000 	 
3.287831	 279.720000 	 
3.291266	 277.902000 	 
3.294701	 279.887000 	 
3.298136	 281.522000 	 
3.301571	 290.708000 	 
3.305006	 303.065000 	 
3.308441	 319.613000 	 
3.311876	 328.829000 	 
3.315311	 350.633000 	 
3.318747	 413.810000 	 
3.322182	 538.397000 	 
3.325617	 759.712000 	 
3.329052	 1157.190000 	 
3.332487	 1568.750000 	 
3.335922	 1840.090000 	 
3.339357	 1790.500000 	 
3.342792	 1383.810000 	 
3.346228	 941.678000 	 
3.349663	 592.374000 	 
3.353098	 404.068000 	 
3.356533	 318.007000 	 
3.359968	 278.229000 	 
3.363403	 255.522000 	 
3.366838	 243.755000 	 
3.370273	 236.141000 	 
3.373709	 231.195000 	 
3.377144	 224.745000 	 
3.380579	 224.087000 	 
3.384014	 218.567000 	 
3.387449	 216.543000 	 
3.390884	 219.780000 	 
3.394319	 222.088000 	 
3.397754	 221.367000 	 
3.401190	 219.197000 	 
3.404625	 217.908000 	 
3.408060	 211.781000 	 
3.411495	 208.066000 	 
3.414930	 209.945000 	 
3.418365	 210.940000 	 
3.421800	 209.881000 	 
3.425235	 216.846000 	 
3.428670	 210.894000 	 
3.432106	 209.315000 	 
3.435541	 210.027000 	 
3.438976	 210.674000 	 
3.442411	 214.416000 	 
3.445846	 215.555000 	 
3.449281	 211.321000 	 
3.452716	 209.012000 	 
3.456151	 210.761000 	 
3.459587	 209.034000 	 
3.463022	 208.188000 	 
3.466457	 207.179000 	 
3.469892	 204.974000 	 
3.473327	 207.493000 	 
3.476762	 211.882000 	 
3.480197	 205.851000 	 
3.483633	 208.773000 	 
3.487068	 212.744000 	 
3.490503	 214.820000 	 
3.493938	 214.354000 	 
3.497373	 208.211000 	 
3.500808	 207.088000 	 
3.504243	 209.337000 	 
3.507678	 213.529000 	 
3.511113	 216.450000 	 
3.514549	 212.587000 	 
3.517984	 210.555000 	 
3.521419	 210.507000 	 
3.524854	 211.398000 	 
3.528289	 213.522000 	 
3.531724	 216.280000 	 
3.535159	 220.107000 	 
3.538594	 220.719000 	 
3.542030	 219.225000 	 
3.545465	 214.760000 	 
3.548900	 210.143000 	 
3.552335	 211.517000 	 
3.555770	 215.883000 	 
3.559205	 216.733000 	 
3.562640	 215.043000 	 
3.566075	 212.033000 	 
3.569510	 213.717000 	 
3.572946	 214.402000 	 
3.576381	 213.914000 	 
3.579816	 215.400000 	 
3.583251	 218.226000 	 
3.586686	 221.372000 	 
3.590121	 220.413000 	 
3.593556	 221.188000 	 
3.596992	 224.181000 	 
3.600427	 224.841000 	 
3.603862	 221.657000 	 
3.607297	 224.036000 	 
3.610732	 225.293000 	 
3.614167	 226.189000 	 
3.617602	 230.208000 	 
3.621037	 230.347000 	 
3.624472	 240.151000 	 
3.627908	 257.635000 	 
3.631343	 284.908000 	 
3.634778	 343.251000 	 
3.638213	 444.609000 	 
3.641648	 593.252000 	 
3.645083	 752.853000 	 
3.648518	 844.741000 	 
3.651953	 827.211000 	 
3.655389	 713.669000 	 
3.658824	 586.104000 	 
3.662259	 466.083000 	 
3.665694	 383.514000 	 
3.669129	 336.416000 	 
3.672564	 307.232000 	 
3.675999	 291.201000 	 
3.679434	 284.472000 	 
3.682869	 281.847000 	 
3.686305	 291.658000 	 
3.689740	 300.353000 	 
3.693175	 319.551000 	 
3.696610	 356.925000 	 
3.700045	 413.518000 	 
3.703480	 487.428000 	 
3.706915	 557.179000 	 
3.710351	 585.913000 	 
3.713786	 572.497000 	 
3.717221	 527.167000 	 
3.720656	 499.644000 	 
3.724091	 501.796000 	 
3.727526	 521.912000 	 
3.730961	 520.252000 	 
3.734396	 471.705000 	 
3.737831	 397.950000 	 
3.741267	 326.768000 	 
3.744702	 280.568000 	 
3.748137	 255.018000 	 
3.751572	 238.715000 	 
3.755007	 228.256000 	 
3.758442	 223.356000 	 
3.761877	 223.535000 	 
3.765312	 224.501000 	 
3.768748	 224.219000 	 
3.772183	 225.871000 	 
3.775618	 226.481000 	 
3.779053	 224.455000 	 
3.782488	 221.789000 	 
3.785923	 224.312000 	 
3.789358	 225.127000 	 
3.792793	 225.370000 	 
3.796228	 228.101000 	 
3.799663	 229.883000 	 
3.803099	 224.293000 	 
3.806534	 223.421000 	 
3.809969	 220.815000 	 
3.813404	 215.809000 	 
3.816839	 216.256000 	 
3.820274	 221.303000 	 
3.823710	 222.925000 	 
3.827145	 222.849000 	 
3.830580	 223.538000 	 
3.834015	 222.977000 	 
3.837450	 220.972000 	 
3.840885	 216.528000 	 
3.844320	 218.233000 	 
3.847755	 217.580000 	 
3.851190	 218.923000 	 
3.854626	 219.181000 	 
3.858061	 220.783000 	 
3.861496	 225.855000 	 
3.864931	 223.265000 	 
3.868366	 220.101000 	 
3.871801	 221.796000 	 
3.875236	 222.773000 	 
3.878671	 224.921000 	 
3.882106	 230.948000 	 
3.885542	 233.541000 	 
3.888977	 232.548000 	 
3.892412	 227.372000 	 
3.895847	 223.633000 	 
3.899282	 223.858000 	 
3.902717	 221.617000 	 
3.906153	 223.376000 	 
3.909587	 224.961000 	 
3.913022	 230.970000 	 
3.916458	 233.486000 	 
3.919893	 234.945000 	 
3.923328	 233.591000 	 
3.926763	 231.031000 	 
3.930198	 232.800000 	 
3.933633	 230.804000 	 
3.937069	 230.436000 	 
3.940504	 234.874000 	 
3.943939	 238.418000 	 
3.947374	 239.635000 	 
3.950809	 232.843000 	 
3.954244	 233.221000 	 
3.957679	 238.487000 	 
3.961114	 240.615000 	 
3.964549	 240.826000 	 
3.967984	 243.107000 	 
3.971420	 250.133000 	 
3.974855	 254.085000 	 
3.978290	 259.269000 	 
3.981725	 270.217000 	 
3.985160	 283.622000 	 
3.988595	 310.635000 	 
3.992030	 365.014000 	 
3.995465	 460.611000 	 
3.998901	 639.481000 	 
4.002336	 957.903000 	 
4.005771	 1330.030000 	 
4.009206	 1630.350000 	 
4.012641	 1735.010000 	 
4.016076	 1594.490000 	 
4.019511	 1339.140000 	 
4.022946	 1058.800000 	 
4.026382	 824.700000 	 
4.029817	 671.071000 	 
4.033252	 574.897000 	 
4.036687	 530.716000 	 
4.040122	 528.555000 	 
4.043557	 550.674000 	 
4.046992	 618.201000 	 
4.050427	 758.686000 	 
4.053863	 995.497000 	 
4.057298	 1398.140000 	 
4.060733	 1913.730000 	 
4.064168	 2400.410000 	 
4.067603	 2654.230000 	 
4.071038	 2438.570000 	 
4.074473	 1956.340000 	 
4.077909	 1357.840000 	 
4.081344	 902.319000 	 
4.084779	 605.592000 	 
4.088214	 435.521000 	 
4.091649	 356.102000 	 
4.095084	 311.378000 	 
4.098519	 285.973000 	 
4.101954	 277.694000 	 
4.105390	 269.570000 	 
4.108825	 262.470000 	 
4.112260	 254.429000 	 
4.115695	 243.825000 	 
4.119130	 244.263000 	 
4.122565	 241.375000 	 
4.126000	 240.752000 	 
4.129435	 238.690000 	 
4.132870	 234.198000 	 
4.136305	 232.220000 	 
4.139741	 232.020000 	 
4.143176	 230.363000 	 
4.146611	 233.088000 	 
4.150046	 234.827000 	 
4.153481	 230.351000 	 
4.156916	 227.363000 	 
4.160351	 232.948000 	 
4.163786	 236.659000 	 
4.167222	 235.324000 	 
4.170657	 231.312000 	 
4.174092	 226.552000 	 
4.177527	 227.777000 	 
4.180962	 228.449000 	 
4.184397	 228.333000 	 
4.187832	 227.480000 	 
4.191268	 226.583000 	 
4.194703	 229.945000 	 
4.198138	 231.062000 	 
4.201573	 227.620000 	 
4.205008	 224.358000 	 
4.208443	 219.569000 	 
4.211878	 216.795000 	 
4.215313	 216.438000 	 
4.218749	 214.295000 	 
4.222184	 215.271000 	 
4.225619	 219.423000 	 
4.229054	 216.164000 	 
4.232489	 214.551000 	 
4.235924	 213.828000 	 
4.239359	 217.819000 	 
4.242794	 222.415000 	 
4.246229	 221.105000 	 
4.249664	 220.010000 	 
4.253099	 222.431000 	 
4.256535	 219.981000 	 
4.259970	 218.540000 	 
4.263405	 218.129000 	 
4.266840	 220.838000 	 
4.270275	 224.431000 	 
4.273710	 224.239000 	 
4.277145	 224.599000 	 
4.280581	 222.403000 	 
4.284016	 220.895000 	 
4.287451	 224.217000 	 
4.290886	 221.943000 	 
4.294321	 221.871000 	 
4.297756	 219.838000 	 
4.301191	 214.267000 	 
4.304627	 212.761000 	 
4.308062	 216.929000 	 
4.311497	 215.226000 	 
4.314932	 214.829000 	 
4.318367	 217.522000 	 
4.321802	 218.996000 	 
4.325237	 217.280000 	 
4.328672	 214.113000 	 
4.332108	 214.504000 	 
4.335543	 217.130000 	 
4.338978	 216.980000 	 
4.342413	 213.852000 	 
4.345848	 209.923000 	 
4.349283	 214.028000 	 
4.352718	 215.664000 	 
4.356153	 213.497000 	 
4.359589	 213.758000 	 
4.363023	 212.933000 	 
4.366458	 212.579000 	 
4.369894	 211.559000 	 
4.373329	 212.724000 	 
4.376764	 213.481000 	 
4.380199	 211.107000 	 
4.383634	 210.521000 	 
4.387069	 213.022000 	 
4.390504	 216.051000 	 
4.393940	 216.333000 	 
4.397375	 214.965000 	 
4.400810	 212.867000 	 
4.404245	 210.630000 	 
4.407680	 208.761000 	 
4.411115	 209.051000 	 
4.414550	 213.962000 	 
4.417985	 213.046000 	 
4.421421	 209.324000 	 
4.424856	 207.666000 	 
4.428291	 206.717000 	 
4.431726	 209.928000 	 
4.435161	 213.675000 	 
4.438596	 215.149000 	 
4.442031	 217.180000 	 
4.445467	 216.763000 	 
4.448902	 213.105000 	 
4.452337	 209.974000 	 
4.455772	 209.511000 	 
4.459207	 210.731000 	 
4.462642	 212.672000 	 
4.466077	 214.157000 	 
4.469513	 210.187000 	 
4.472948	 202.388000 	 
4.476383	 202.917000 	 
4.479818	 205.836000 	 
4.483252	 207.855000 	 
4.486688	 211.836000 	 
4.490123	 218.423000 	 
4.493558	 221.720000 	 
4.496993	 219.549000 	 
4.500428	 216.354000 	 
4.503863	 217.241000 	 
4.507299	 216.925000 	 
4.510734	 216.380000 	 
4.514169	 216.483000 	 
4.517604	 215.862000 	 
4.521039	 212.235000 	 
4.524474	 213.412000 	 
4.527909	 213.354000 	 
4.531344	 216.169000 	 
4.534780	 215.468000 	 
4.538215	 215.109000 	 
4.541650	 213.067000 	 
4.545085	 215.676000 	 
4.548520	 220.749000 	 
4.551955	 221.236000 	 
4.555390	 220.103000 	 
4.558826	 215.992000 	 
4.562261	 214.156000 	 
4.565696	 211.901000 	 
4.569131	 211.386000 	 
4.572566	 212.676000 	 
4.576001	 211.534000 	 
4.579436	 214.709000 	 
4.582871	 216.649000 	 
4.586307	 219.460000 	 
4.589742	 217.488000 	 
4.593177	 215.951000 	 
4.596612	 216.842000 	 
4.600047	 218.495000 	 
4.603482	 219.320000 	 
4.606917	 222.465000 	 
4.610352	 226.368000 	 
4.613787	 226.113000 	 
4.617222	 226.523000 	 
4.620657	 227.507000 	 
4.624093	 233.346000 	 
4.627528	 243.092000 	 
4.630963	 263.392000 	 
4.634398	 307.206000 	 
4.637833	 381.055000 	 
4.641268	 502.450000 	 
4.644703	 687.911000 	 
4.648139	 905.707000 	 
4.651574	 1071.510000 	 
4.655009	 1138.010000 	 
4.658444	 1057.960000 	 
4.661879	 905.384000 	 
4.665314	 726.792000 	 
4.668749	 574.112000 	 
4.672185	 468.062000 	 
4.675620	 388.740000 	 
4.679055	 334.415000 	 
4.682490	 304.657000 	 
4.685925	 291.996000 	 
4.689360	 286.721000 	 
4.692795	 280.859000 	 
4.696230	 280.491000 	 
4.699666	 292.822000 	 
4.703101	 318.395000 	 
4.706536	 361.364000 	 
4.709971	 426.400000 	 
4.713406	 520.375000 	 
4.716841	 598.704000 	 
4.720276	 632.572000 	 
4.723711	 588.984000 	 
4.727146	 505.102000 	 
4.730581	 410.859000 	 
4.734016	 331.940000 	 
4.737452	 284.753000 	 
4.740887	 253.186000 	 
4.744322	 239.910000 	 
4.747757	 230.790000 	 
4.751192	 223.772000 	 
4.754627	 222.698000 	 
4.758062	 220.119000 	 
4.761497	 218.715000 	 
4.764933	 220.010000 	 
4.768368	 221.543000 	 
4.771803	 216.706000 	 
4.775238	 214.699000 	 
4.778673	 220.562000 	 
4.782108	 219.114000 	 
4.785543	 217.971000 	 
4.788979	 222.268000 	 
4.792414	 222.838000 	 
4.795849	 220.183000 	 
4.799284	 216.443000 	 
4.802719	 213.152000 	 
4.806154	 213.965000 	 
4.809589	 219.011000 	 
4.813025	 219.978000 	 
4.816460	 217.316000 	 
4.819895	 217.833000 	 
4.823330	 214.664000 	 
4.826765	 213.045000 	 
4.830200	 213.728000 	 
4.833635	 217.293000 	 
4.837071	 214.208000 	 
4.840506	 212.436000 	 
4.843940	 217.657000 	 
4.847375	 219.537000 	 
4.850810	 222.610000 	 
4.854246	 231.124000 	 
4.857681	 241.438000 	 
4.861116	 255.281000 	 
4.864551	 270.220000 	 
4.867986	 282.853000 	 
4.871421	 291.531000 	 
4.874856	 285.893000 	 
4.878292	 271.398000 	 
4.881727	 259.481000 	 
4.885162	 248.334000 	 
4.888597	 242.244000 	 
4.892032	 237.195000 	 
4.895467	 231.030000 	 
4.898902	 226.031000 	 
4.902338	 224.836000 	 
4.905773	 223.749000 	 
4.909208	 226.927000 	 
4.912643	 227.737000 	 
4.916078	 233.013000 	 
4.919513	 245.063000 	 
4.922948	 262.801000 	 
4.926384	 288.705000 	 
4.929819	 333.919000 	 
4.933254	 398.384000 	 
4.936689	 473.414000 	 
4.940124	 547.287000 	 
4.943559	 576.714000 	 
4.946994	 560.468000 	 
4.950429	 504.374000 	 
4.953865	 436.387000 	 
4.957300	 371.986000 	 
4.960735	 324.499000 	 
4.964169	 289.860000 	 
4.967605	 272.761000 	 
4.971040	 267.873000 	 
4.974475	 268.503000 	 
4.977910	 275.232000 	 
4.981345	 289.363000 	 
4.984780	 308.669000 	 
4.988215	 323.168000 	 
4.991651	 322.281000 	 
4.995086	 306.214000 	 
4.998521	 290.837000 	 
5.001956	 281.446000 	 
5.005391	 273.263000 	 
5.008826	 263.973000 	 
5.012261	 250.997000 	 
5.015696	 239.829000 	 
5.019132	 231.801000 	 
5.022567	 227.071000 	 
5.026002	 224.249000 	 
5.029437	 222.550000 	 
5.032872	 220.781000 	 
5.036307	 219.389000 	 
5.039743	 215.490000 	 
5.043178	 215.146000 	 
5.046613	 212.669000 	 
5.050048	 217.156000 	 
5.053483	 216.446000 	 
5.056918	 218.477000 	 
5.060353	 219.042000 	 
5.063788	 218.653000 	 
5.067223	 215.039000 	 
5.070659	 216.032000 	 
5.074094	 215.540000 	 
5.077529	 216.758000 	 
5.080964	 218.315000 	 
5.084399	 219.639000 	 
5.087834	 216.538000 	 
5.091269	 214.378000 	 
5.094704	 214.965000 	 
5.098139	 216.916000 	 
5.101574	 217.124000 	 
5.105010	 216.767000 	 
5.108445	 218.351000 	 
5.111880	 222.009000 	 
5.115315	 225.850000 	 
5.118750	 226.944000 	 
5.122185	 228.241000 	 
5.125620	 236.842000 	 
5.129055	 251.391000 	 
