1.010345	 226.723000 	 
1.013780	 230.783000 	 
1.017215	 234.509000 	 
1.020650	 232.602000 	 
1.024086	 232.357000 	 
1.027521	 236.372000 	 
1.030956	 235.560000 	 
1.034391	 232.345000 	 
1.037826	 232.965000 	 
1.041261	 226.025000 	 
1.044696	 229.148000 	 
1.048132	 239.482000 	 
1.051567	 241.067000 	 
1.055002	 239.737000 	 
1.058437	 234.397000 	 
1.061872	 222.467000 	 
1.065307	 219.656000 	 
1.068742	 223.000000 	 
1.072177	 221.000000 	 
1.075612	 217.814000 	 
1.079048	 222.903000 	 
1.082483	 223.573000 	 
1.085918	 217.414000 	 
1.089353	 219.780000 	 
1.092788	 228.861000 	 
1.096223	 226.382000 	 
1.099658	 222.289000 	 
1.103093	 219.313000 	 
1.106529	 224.179000 	 
1.109964	 233.656000 	 
1.113399	 234.291000 	 
1.116834	 234.973000 	 
1.120269	 239.325000 	 
1.123704	 231.930000 	 
1.127139	 229.761000 	 
1.130574	 227.915000 	 
1.134009	 228.153000 	 
1.137445	 221.128000 	 
1.140880	 222.506000 	 
1.144315	 228.299000 	 
1.147750	 221.393000 	 
1.151185	 223.639000 	 
1.154620	 225.067000 	 
1.158055	 220.354000 	 
1.161490	 222.847000 	 
1.164926	 220.085000 	 
1.168361	 216.971000 	 
1.171796	 220.568000 	 
1.175231	 222.338000 	 
1.178666	 208.767000 	 
1.182101	 208.018000 	 
1.185536	 211.253000 	 
1.188971	 210.070000 	 
1.192406	 211.033000 	 
1.195842	 211.698000 	 
1.199277	 213.127000 	 
1.202712	 215.052000 	 
1.206147	 214.944000 	 
1.209582	 210.757000 	 
1.213017	 215.761000 	 
1.216452	 213.884000 	 
1.219888	 216.584000 	 
1.223323	 221.309000 	 
1.226758	 214.677000 	 
1.230193	 216.989000 	 
1.233628	 220.031000 	 
1.237063	 220.430000 	 
1.240498	 218.516000 	 
1.243933	 214.340000 	 
1.247369	 213.795000 	 
1.250804	 220.720000 	 
1.254239	 218.391000 	 
1.257674	 213.549000 	 
1.261109	 214.761000 	 
1.264544	 217.533000 	 
1.267979	 214.362000 	 
1.271414	 215.497000 	 
1.274849	 218.934000 	 
1.278285	 221.682000 	 
1.281720	 221.949000 	 
1.285155	 225.419000 	 
1.288590	 227.429000 	 
1.292025	 232.637000 	 
1.295460	 231.610000 	 
1.298895	 225.615000 	 
1.302330	 224.182000 	 
1.305765	 225.511000 	 
1.309201	 225.719000 	 
1.312636	 228.599000 	 
1.316071	 223.684000 	 
1.319506	 217.196000 	 
1.322941	 214.531000 	 
1.326376	 210.750000 	 
1.329811	 212.397000 	 
1.333247	 211.831000 	 
1.336682	 209.440000 	 
1.340117	 217.767000 	 
1.343552	 218.632000 	 
1.346987	 214.179000 	 
1.350422	 207.543000 	 
1.353857	 211.039000 	 
1.357292	 213.017000 	 
1.360727	 222.074000 	 
1.364163	 226.720000 	 
1.367598	 223.043000 	 
1.371033	 219.820000 	 
1.374468	 219.821000 	 
1.377903	 218.876000 	 
1.381338	 215.346000 	 
1.384773	 215.637000 	 
1.388208	 220.687000 	 
1.391644	 223.231000 	 
1.395079	 218.689000 	 
1.398514	 220.649000 	 
1.401949	 225.555000 	 
1.405384	 216.515000 	 
1.408819	 213.934000 	 
1.412254	 214.515000 	 
1.415689	 211.291000 	 
1.419124	 220.838000 	 
1.422560	 225.072000 	 
1.425995	 226.414000 	 
1.429430	 217.656000 	 
1.432865	 209.931000 	 
1.436300	 209.210000 	 
1.439735	 211.274000 	 
1.443170	 213.992000 	 
1.446605	 213.280000 	 
1.450041	 214.542000 	 
1.453476	 217.856000 	 
1.456911	 219.936000 	 
1.460346	 219.677000 	 
1.463781	 222.267000 	 
1.467216	 222.490000 	 
1.470651	 222.040000 	 
1.474087	 216.970000 	 
1.477521	 214.528000 	 
1.480957	 215.534000 	 
1.484392	 212.760000 	 
1.487827	 218.399000 	 
1.491262	 221.024000 	 
1.494697	 212.360000 	 
1.498132	 208.906000 	 
1.501567	 208.512000 	 
1.505003	 212.538000 	 
1.508438	 211.151000 	 
1.511873	 212.441000 	 
1.515308	 220.574000 	 
1.518743	 225.210000 	 
1.522178	 230.344000 	 
1.525613	 230.842000 	 
1.529048	 229.663000 	 
1.532484	 230.255000 	 
1.535919	 225.340000 	 
1.539354	 225.711000 	 
1.542789	 228.900000 	 
1.546224	 235.883000 	 
1.549659	 234.640000 	 
1.553094	 228.154000 	 
1.556529	 222.271000 	 
1.559965	 218.457000 	 
1.563400	 221.771000 	 
1.566835	 232.076000 	 
1.570270	 234.393000 	 
1.573705	 228.960000 	 
1.577140	 232.529000 	 
1.580575	 236.780000 	 
1.584010	 236.672000 	 
1.587446	 235.546000 	 
1.590881	 233.521000 	 
1.594316	 245.412000 	 
1.597751	 259.522000 	 
1.601186	 265.493000 	 
1.604621	 284.213000 	 
1.608056	 336.869000 	 
1.611491	 501.834000 	 
1.614926	 798.320000 	 
1.618362	 1185.630000 	 
1.621797	 1555.530000 	 
1.625232	 1577.050000 	 
1.628667	 1354.100000 	 
1.632102	 944.587000 	 
1.635537	 689.710000 	 
1.638972	 523.662000 	 
1.642407	 451.120000 	 
1.645843	 430.835000 	 
1.649278	 430.672000 	 
1.652713	 464.124000 	 
1.656148	 571.754000 	 
1.659583	 771.310000 	 
1.663018	 1063.390000 	 
1.666453	 1243.520000 	 
1.669888	 1204.060000 	 
1.673324	 955.362000 	 
1.676759	 618.102000 	 
1.680194	 414.176000 	 
1.683629	 308.977000 	 
1.687064	 267.793000 	 
1.690499	 256.661000 	 
1.693934	 253.081000 	 
1.697369	 243.030000 	 
1.700805	 242.424000 	 
1.704240	 242.170000 	 
1.707675	 237.091000 	 
1.711110	 234.864000 	 
1.714545	 231.955000 	 
1.717980	 227.820000 	 
1.721415	 227.735000 	 
1.724850	 227.782000 	 
1.728285	 220.522000 	 
1.731721	 221.502000 	 
1.735156	 220.807000 	 
1.738591	 218.486000 	 
1.742026	 223.191000 	 
1.745461	 227.923000 	 
1.748896	 231.241000 	 
1.752331	 230.204000 	 
1.755766	 224.461000 	 
1.759202	 220.433000 	 
1.762637	 223.570000 	 
1.766072	 218.622000 	 
1.769507	 214.818000 	 
1.772942	 208.784000 	 
1.776377	 212.964000 	 
1.779812	 223.449000 	 
1.783247	 221.103000 	 
1.786683	 225.336000 	 
1.790118	 229.719000 	 
1.793553	 223.772000 	 
1.796988	 221.019000 	 
1.800423	 221.675000 	 
1.803858	 221.777000 	 
1.807293	 222.214000 	 
1.810728	 220.119000 	 
1.814163	 224.021000 	 
1.817599	 225.117000 	 
1.821034	 224.231000 	 
1.824469	 225.383000 	 
1.827904	 219.146000 	 
1.831339	 212.120000 	 
1.834774	 210.187000 	 
1.838209	 217.824000 	 
1.841644	 222.233000 	 
1.845080	 219.970000 	 
1.848515	 213.099000 	 
1.851950	 216.465000 	 
1.855385	 220.290000 	 
1.858820	 221.208000 	 
1.862255	 217.329000 	 
1.865690	 217.007000 	 
1.869125	 218.817000 	 
1.872561	 220.313000 	 
1.875996	 222.838000 	 
1.879431	 216.497000 	 
1.882866	 215.612000 	 
1.886301	 209.873000 	 
1.889736	 209.010000 	 
1.893171	 212.003000 	 
1.896606	 216.528000 	 
1.900041	 218.503000 	 
1.903477	 214.056000 	 
1.906912	 212.612000 	 
1.910347	 212.281000 	 
1.913782	 210.796000 	 
1.917217	 213.292000 	 
1.920652	 217.333000 	 
1.924087	 227.618000 	 
1.927523	 226.789000 	 
1.930958	 220.318000 	 
1.934393	 213.764000 	 
1.937828	 213.084000 	 
1.941263	 214.697000 	 
1.944698	 216.514000 	 
1.948133	 222.620000 	 
1.951568	 222.435000 	 
1.955003	 214.031000 	 
1.958439	 216.342000 	 
1.961874	 213.292000 	 
1.965309	 215.633000 	 
1.968744	 218.663000 	 
1.972179	 219.688000 	 
1.975614	 224.863000 	 
1.979049	 220.848000 	 
1.982485	 215.358000 	 
1.985920	 216.937000 	 
1.989355	 225.996000 	 
1.992790	 226.044000 	 
1.996225	 220.271000 	 
1.999660	 216.801000 	 
2.003095	 219.270000 	 
2.006530	 226.307000 	 
2.009965	 220.442000 	 
2.013401	 214.208000 	 
2.016836	 209.893000 	 
2.020271	 211.485000 	 
2.023706	 213.236000 	 
2.027141	 219.647000 	 
2.030576	 225.238000 	 
2.034011	 221.284000 	 
2.037446	 219.617000 	 
2.040881	 221.270000 	 
2.044316	 211.921000 	 
2.047752	 212.520000 	 
2.051187	 218.817000 	 
2.054622	 219.520000 	 
2.058057	 224.679000 	 
2.061492	 229.676000 	 
2.064927	 226.518000 	 
2.068363	 225.410000 	 
2.071798	 228.962000 	 
2.075233	 229.850000 	 
2.078668	 230.017000 	 
2.082103	 231.719000 	 
2.085538	 228.799000 	 
2.088973	 226.986000 	 
2.092408	 225.747000 	 
2.095843	 225.721000 	 
2.099279	 228.544000 	 
2.102714	 223.788000 	 
2.106149	 220.733000 	 
2.109584	 227.780000 	 
2.113019	 226.180000 	 
2.116454	 222.398000 	 
2.119889	 225.970000 	 
2.123324	 231.062000 	 
2.126759	 230.343000 	 
2.130195	 230.642000 	 
2.133630	 225.304000 	 
2.137065	 221.323000 	 
2.140500	 220.541000 	 
2.143935	 223.249000 	 
2.147370	 228.013000 	 
2.150806	 234.086000 	 
2.154241	 233.752000 	 
2.157675	 226.125000 	 
2.161111	 221.795000 	 
2.164546	 224.416000 	 
2.167981	 226.862000 	 
2.171416	 227.781000 	 
2.174851	 227.581000 	 
2.178286	 225.802000 	 
2.181721	 225.423000 	 
2.185157	 225.791000 	 
2.188592	 225.294000 	 
2.192027	 228.460000 	 
2.195462	 235.846000 	 
2.198897	 238.882000 	 
2.202332	 237.508000 	 
2.205767	 238.683000 	 
2.209203	 242.994000 	 
2.212638	 244.338000 	 
2.216073	 245.461000 	 
2.219508	 244.565000 	 
2.222943	 239.070000 	 
2.226378	 243.136000 	 
2.229813	 242.809000 	 
2.233248	 242.057000 	 
2.236683	 236.157000 	 
2.240118	 240.513000 	 
2.243554	 249.163000 	 
2.246989	 254.439000 	 
2.250424	 261.568000 	 
2.253859	 269.217000 	 
2.257294	 268.581000 	 
2.260729	 271.750000 	 
2.264164	 275.478000 	 
2.267600	 277.638000 	 
2.271035	 288.576000 	 
2.274470	 299.284000 	 
2.277905	 307.483000 	 
2.281340	 316.254000 	 
2.284775	 327.315000 	 
2.288210	 336.486000 	 
2.291645	 349.057000 	 
2.295080	 360.020000 	 
2.298516	 391.417000 	 
2.301951	 463.002000 	 
2.305386	 598.884000 	 
2.308821	 926.742000 	 
2.312256	 1882.230000 	 
2.315691	 3736.430000 	 
2.319126	 6436.100000 	 
2.322561	 9182.630000 	 
2.325997	 9605.670000 	 
2.329432	 8279.400000 	 
2.332867	 5488.290000 	 
2.336302	 3389.390000 	 
2.339737	 2130.880000 	 
2.343172	 1620.980000 	 
2.346607	 1636.040000 	 
2.350042	 1964.370000 	 
2.353477	 2501.070000 	 
2.356913	 2857.910000 	 
2.360348	 2705.930000 	 
2.363783	 2099.080000 	 
2.367218	 1314.420000 	 
2.370653	 799.545000 	 
2.374088	 515.218000 	 
2.377523	 396.658000 	 
2.380959	 349.547000 	 
2.384394	 321.869000 	 
2.387829	 302.516000 	 
2.391264	 296.313000 	 
2.394699	 291.680000 	 
2.398134	 283.913000 	 
2.401569	 276.022000 	 
2.405004	 271.160000 	 
2.408439	 267.725000 	 
2.411875	 264.825000 	 
2.415310	 263.872000 	 
2.418745	 259.056000 	 
2.422180	 250.335000 	 
2.425615	 247.911000 	 
2.429050	 252.056000 	 
2.432485	 251.282000 	 
2.435920	 249.208000 	 
2.439356	 242.976000 	 
2.442791	 238.896000 	 
2.446226	 235.528000 	 
2.449661	 232.675000 	 
2.453096	 229.389000 	 
2.456531	 226.962000 	 
2.459966	 224.077000 	 
2.463401	 224.126000 	 
2.466836	 230.779000 	 
2.470272	 233.718000 	 
2.473707	 229.927000 	 
2.477142	 228.451000 	 
2.480577	 230.453000 	 
2.484012	 228.039000 	 
2.487447	 226.607000 	 
2.490882	 221.721000 	 
2.494318	 215.213000 	 
2.497753	 210.524000 	 
2.501188	 210.647000 	 
2.504623	 212.483000 	 
2.508058	 219.502000 	 
2.511493	 219.756000 	 
2.514928	 216.925000 	 
2.518363	 217.913000 	 
2.521798	 218.787000 	 
2.525234	 218.304000 	 
2.528669	 224.044000 	 
2.532104	 221.473000 	 
2.535539	 223.715000 	 
2.538974	 219.918000 	 
2.542409	 217.374000 	 
2.545844	 219.140000 	 
2.549279	 219.031000 	 
2.552715	 209.480000 	 
2.556150	 206.942000 	 
2.559585	 207.506000 	 
2.563020	 207.557000 	 
2.566455	 207.857000 	 
2.569890	 210.954000 	 
2.573325	 212.695000 	 
2.576760	 212.142000 	 
2.580195	 206.094000 	 
2.583631	 199.756000 	 
2.587066	 199.809000 	 
2.590501	 203.200000 	 
2.593936	 207.291000 	 
2.597371	 209.853000 	 
2.600806	 209.640000 	 
2.604241	 206.877000 	 
2.607677	 214.423000 	 
2.611112	 221.970000 	 
2.614547	 216.489000 	 
2.617982	 208.361000 	 
2.621417	 203.107000 	 
2.624852	 205.258000 	 
2.628287	 203.936000 	 
2.631723	 206.987000 	 
2.635158	 210.283000 	 
2.638593	 207.875000 	 
2.642028	 209.587000 	 
2.645463	 210.351000 	 
2.648898	 208.112000 	 
2.652333	 202.994000 	 
2.655768	 203.696000 	 
2.659203	 204.420000 	 
2.662638	 210.099000 	 
2.666074	 213.082000 	 
2.669509	 211.568000 	 
2.672944	 208.006000 	 
2.676379	 207.151000 	 
2.679814	 207.651000 	 
2.683249	 204.857000 	 
2.686684	 207.710000 	 
2.690120	 206.567000 	 
2.693555	 198.025000 	 
2.696990	 197.336000 	 
2.700425	 203.036000 	 
2.703860	 206.158000 	 
2.707295	 206.836000 	 
2.710730	 205.056000 	 
2.714165	 206.964000 	 
2.717600	 212.886000 	 
2.721036	 214.164000 	 
2.724471	 208.788000 	 
2.727906	 207.452000 	 
2.731341	 205.470000 	 
2.734776	 204.135000 	 
2.738211	 203.733000 	 
2.741646	 204.117000 	 
2.745081	 207.145000 	 
2.748517	 204.553000 	 
2.751952	 200.285000 	 
2.755387	 206.454000 	 
2.758822	 207.314000 	 
2.762257	 207.902000 	 
2.765692	 210.626000 	 
2.769127	 205.283000 	 
2.772562	 198.400000 	 
2.775997	 197.108000 	 
2.779433	 204.900000 	 
2.782868	 206.730000 	 
2.786303	 209.764000 	 
2.789738	 216.706000 	 
2.793173	 217.541000 	 
2.796608	 218.960000 	 
2.800043	 221.214000 	 
2.803479	 220.735000 	 
2.806914	 222.657000 	 
2.810349	 223.834000 	 
2.813784	 220.199000 	 
2.817219	 216.277000 	 
2.820654	 218.793000 	 
2.824089	 223.566000 	 
2.827524	 226.530000 	 
2.830959	 233.243000 	 
2.834395	 249.086000 	 
2.837830	 282.528000 	 
2.841265	 356.082000 	 
2.844700	 490.397000 	 
2.848135	 734.039000 	 
2.851570	 1156.780000 	 
2.855005	 1709.460000 	 
2.858440	 2104.820000 	 
2.861876	 2199.790000 	 
2.865311	 1728.700000 	 
2.868746	 1171.040000 	 
2.872181	 698.642000 	 
2.875616	 447.001000 	 
2.879051	 331.395000 	 
2.882486	 269.345000 	 
2.885921	 239.807000 	 
2.889356	 229.287000 	 
2.892792	 225.334000 	 
2.896227	 218.704000 	 
2.899662	 215.383000 	 
2.903097	 214.102000 	 
2.906532	 213.194000 	 
2.909967	 216.322000 	 
2.913402	 223.569000 	 
2.916838	 222.743000 	 
2.920273	 219.013000 	 
2.923708	 216.653000 	 
2.927143	 217.280000 	 
2.930578	 206.565000 	 
2.934013	 202.003000 	 
2.937448	 199.898000 	 
2.940883	 201.092000 	 
2.944318	 201.626000 	 
2.947753	 206.763000 	 
2.951189	 209.662000 	 
2.954624	 205.845000 	 
2.958059	 202.810000 	 
2.961494	 204.774000 	 
2.964929	 207.432000 	 
2.968364	 209.726000 	 
2.971799	 202.572000 	 
2.975235	 199.618000 	 
2.978670	 199.312000 	 
2.982105	 202.404000 	 
2.985540	 205.589000 	 
2.988975	 204.513000 	 
2.992410	 196.111000 	 
2.995845	 201.795000 	 
2.999280	 206.441000 	 
3.002715	 206.271000 	 
3.006150	 202.654000 	 
3.009586	 201.831000 	 
3.013021	 199.890000 	 
3.016456	 203.507000 	 
3.019891	 201.248000 	 
3.023326	 202.262000 	 
3.026761	 208.515000 	 
3.030196	 212.261000 	 
3.033632	 212.547000 	 
3.037067	 208.985000 	 
3.040502	 205.786000 	 
3.043937	 203.926000 	 
3.047372	 205.169000 	 
3.050807	 206.254000 	 
3.054242	 203.634000 	 
3.057678	 204.606000 	 
3.061113	 200.884000 	 
3.064548	 198.230000 	 
3.067983	 203.612000 	 
3.071418	 205.412000 	 
3.074853	 209.221000 	 
3.078288	 208.536000 	 
3.081723	 206.838000 	 
3.085158	 202.256000 	 
3.088594	 199.611000 	 
3.092029	 202.682000 	 
3.095464	 205.499000 	 
3.098899	 208.492000 	 
3.102334	 209.550000 	 
3.105769	 207.869000 	 
3.109204	 206.695000 	 
3.112639	 205.097000 	 
3.116075	 209.310000 	 
3.119510	 213.090000 	 
3.122945	 212.700000 	 
3.126380	 213.449000 	 
3.129815	 212.391000 	 
3.133250	 207.367000 	 
3.136685	 201.677000 	 
3.140120	 201.113000 	 
3.143555	 204.836000 	 
3.146990	 210.343000 	 
3.150426	 212.615000 	 
3.153861	 214.104000 	 
3.157296	 215.420000 	 
3.160731	 213.228000 	 
3.164166	 214.001000 	 
3.167601	 210.861000 	 
3.171037	 208.129000 	 
3.174472	 208.991000 	 
3.177907	 209.370000 	 
3.181342	 210.905000 	 
3.184777	 208.077000 	 
3.188212	 209.839000 	 
3.191647	 210.238000 	 
3.195082	 209.079000 	 
3.198517	 215.976000 	 
3.201953	 222.887000 	 
3.205388	 221.149000 	 
3.208823	 218.665000 	 
3.212258	 220.768000 	 
3.215693	 227.435000 	 
3.219128	 236.000000 	 
3.222563	 241.025000 	 
3.225998	 255.265000 	 
3.229433	 294.100000 	 
3.232869	 386.194000 	 
3.236304	 553.218000 	 
3.239739	 814.534000 	 
3.243174	 1120.060000 	 
3.246609	 1262.360000 	 
3.250044	 1247.880000 	 
3.253479	 1025.910000 	 
3.256914	 803.593000 	 
3.260349	 626.143000 	 
3.263785	 501.096000 	 
3.267220	 424.256000 	 
3.270655	 370.675000 	 
3.274090	 338.496000 	 
3.277525	 325.567000 	 
3.280960	 310.594000 	 
3.284396	 298.890000 	 
3.287831	 289.565000 	 
3.291266	 288.531000 	 
3.294701	 288.228000 	 
3.298136	 291.195000 	 
3.301571	 292.479000 	 
3.305006	 296.748000 	 
3.308441	 304.491000 	 
3.311876	 322.763000 	 
3.315311	 353.694000 	 
3.318747	 408.888000 	 
3.322182	 506.999000 	 
3.325617	 680.610000 	 
3.329052	 1000.360000 	 
3.332487	 1336.670000 	 
3.335922	 1560.750000 	 
3.339357	 1520.730000 	 
3.342792	 1207.810000 	 
3.346228	 849.528000 	 
3.349663	 554.624000 	 
3.353098	 388.255000 	 
3.356533	 304.797000 	 
3.359968	 272.186000 	 
3.363403	 255.762000 	 
3.366838	 243.145000 	 
3.370273	 236.610000 	 
3.373709	 235.789000 	 
3.377144	 234.249000 	 
3.380579	 234.458000 	 
3.384014	 229.893000 	 
3.387449	 227.846000 	 
3.390884	 228.203000 	 
3.394319	 225.869000 	 
3.397754	 226.346000 	 
3.401190	 224.187000 	 
3.404625	 221.240000 	 
3.408060	 219.221000 	 
3.411495	 220.677000 	 
3.414930	 216.790000 	 
3.418365	 212.593000 	 
3.421800	 210.297000 	 
3.425235	 214.918000 	 
3.428670	 218.463000 	 
3.432106	 218.274000 	 
3.435541	 216.818000 	 
3.438976	 214.599000 	 
3.442411	 214.359000 	 
3.445846	 212.862000 	 
3.449281	 211.451000 	 
3.452716	 210.788000 	 
3.456151	 207.661000 	 
3.459587	 209.369000 	 
3.463022	 210.354000 	 
3.466457	 213.214000 	 
3.469892	 213.155000 	 
3.473327	 212.884000 	 
3.476762	 213.059000 	 
3.480197	 210.001000 	 
3.483633	 209.585000 	 
3.487068	 209.763000 	 
3.490503	 208.746000 	 
3.493938	 210.301000 	 
3.497373	 213.193000 	 
3.500808	 210.835000 	 
3.504243	 212.152000 	 
3.507678	 211.458000 	 
3.511113	 207.796000 	 
3.514549	 209.361000 	 
3.517984	 207.920000 	 
3.521419	 206.788000 	 
3.524854	 209.565000 	 
3.528289	 214.115000 	 
3.531724	 214.341000 	 
3.535159	 213.488000 	 
3.538594	 211.247000 	 
3.542030	 210.081000 	 
3.545465	 211.277000 	 
3.548900	 212.235000 	 
3.552335	 217.809000 	 
3.555770	 216.857000 	 
3.559205	 213.369000 	 
3.562640	 214.970000 	 
3.566075	 217.527000 	 
3.569510	 211.535000 	 
3.572946	 212.866000 	 
3.576381	 222.294000 	 
3.579816	 223.432000 	 
3.583251	 222.463000 	 
3.586686	 220.154000 	 
3.590121	 221.529000 	 
3.593556	 221.727000 	 
3.596992	 220.368000 	 
3.600427	 221.531000 	 
3.603862	 224.374000 	 
3.607297	 220.726000 	 
3.610732	 221.011000 	 
3.614167	 227.824000 	 
3.617602	 236.342000 	 
3.621037	 240.394000 	 
3.624472	 249.600000 	 
3.627908	 261.791000 	 
3.631343	 288.967000 	 
3.634778	 366.017000 	 
3.638213	 501.727000 	 
3.641648	 690.670000 	 
3.645083	 884.557000 	 
3.648518	 979.787000 	 
3.651953	 945.734000 	 
3.655389	 786.844000 	 
3.658824	 634.271000 	 
3.662259	 503.294000 	 
3.665694	 407.284000 	 
3.669129	 354.839000 	 
3.672564	 320.917000 	 
3.675999	 298.609000 	 
3.679434	 295.885000 	 
3.682869	 297.456000 	 
3.686305	 298.116000 	 
3.689740	 315.936000 	 
3.693175	 346.060000 	 
3.696610	 388.413000 	 
3.700045	 453.942000 	 
3.703480	 523.307000 	 
3.706915	 569.874000 	 
3.710351	 567.884000 	 
3.713786	 533.559000 	 
3.717221	 487.130000 	 
3.720656	 454.708000 	 
3.724091	 452.617000 	 
3.727526	 470.128000 	 
3.730961	 465.109000 	 
3.734396	 426.053000 	 
3.737831	 370.588000 	 
3.741267	 313.570000 	 
3.744702	 272.657000 	 
3.748137	 250.860000 	 
3.751572	 238.660000 	 
3.755007	 232.234000 	 
3.758442	 227.842000 	 
3.761877	 229.905000 	 
3.765312	 229.661000 	 
3.768748	 231.235000 	 
3.772183	 229.133000 	 
3.775618	 228.374000 	 
3.779053	 223.547000 	 
3.782488	 223.062000 	 
3.785923	 224.089000 	 
3.789358	 225.949000 	 
3.792793	 228.056000 	 
3.796228	 229.869000 	 
3.799663	 224.950000 	 
3.803099	 223.203000 	 
3.806534	 228.666000 	 
3.809969	 230.528000 	 
3.813404	 230.047000 	 
3.816839	 228.856000 	 
3.820274	 225.984000 	 
3.823710	 225.300000 	 
3.827145	 228.183000 	 
3.830580	 227.104000 	 
3.834015	 226.012000 	 
3.837450	 222.951000 	 
3.840885	 219.837000 	 
3.844320	 219.244000 	 
3.847755	 215.070000 	 
3.851190	 220.088000 	 
3.854626	 221.192000 	 
3.858061	 220.507000 	 
3.861496	 219.869000 	 
3.864931	 221.431000 	 
3.868366	 221.858000 	 
3.871801	 225.797000 	 
3.875236	 226.380000 	 
3.878671	 226.290000 	 
3.882106	 230.622000 	 
3.885542	 230.581000 	 
3.888977	 228.610000 	 
3.892412	 227.473000 	 
3.895847	 224.163000 	 
3.899282	 218.137000 	 
3.902717	 215.334000 	 
3.906153	 222.848000 	 
3.909587	 224.882000 	 
3.913022	 221.357000 	 
3.916458	 227.007000 	 
3.919893	 231.183000 	 
3.923328	 233.495000 	 
3.926763	 235.410000 	 
3.930198	 235.863000 	 
3.933633	 231.811000 	 
3.937069	 235.141000 	 
3.940504	 238.960000 	 
3.943939	 239.147000 	 
3.947374	 233.368000 	 
3.950809	 228.395000 	 
3.954244	 231.294000 	 
3.957679	 236.754000 	 
3.961114	 238.604000 	 
3.964549	 244.548000 	 
3.967984	 248.588000 	 
3.971420	 248.689000 	 
3.974855	 255.560000 	 
3.978290	 267.092000 	 
3.981725	 277.683000 	 
3.985160	 297.292000 	 
3.988595	 334.653000 	 
3.992030	 417.970000 	 
3.995465	 581.584000 	 
3.998901	 854.551000 	 
4.002336	 1276.440000 	 
4.005771	 1670.560000 	 
4.009206	 1914.280000 	 
4.012641	 1911.010000 	 
4.016076	 1658.870000 	 
4.019511	 1332.830000 	 
4.022946	 1024.900000 	 
4.026382	 813.120000 	 
4.029817	 681.340000 	 
4.033252	 601.011000 	 
4.036687	 581.627000 	 
4.040122	 594.861000 	 
4.043557	 647.083000 	 
4.046992	 770.332000 	 
4.050427	 954.984000 	 
4.053863	 1222.670000 	 
4.057298	 1607.050000 	 
4.060733	 1972.150000 	 
4.064168	 2241.040000 	 
4.067603	 2258.880000 	 
4.071038	 1950.490000 	 
4.074473	 1484.910000 	 
4.077909	 1010.230000 	 
4.081344	 690.468000 	 
4.084779	 491.671000 	 
4.088214	 382.565000 	 
4.091649	 331.909000 	 
4.095084	 303.818000 	 
4.098519	 280.740000 	 
4.101954	 264.675000 	 
4.105390	 258.398000 	 
4.108825	 256.032000 	 
4.112260	 249.109000 	 
4.115695	 246.695000 	 
4.119130	 240.246000 	 
4.122565	 240.449000 	 
4.126000	 241.584000 	 
4.129435	 239.423000 	 
4.132870	 237.602000 	 
4.136305	 235.061000 	 
4.139741	 232.411000 	 
4.143176	 233.247000 	 
4.146611	 229.735000 	 
4.150046	 230.637000 	 
4.153481	 231.228000 	 
4.156916	 230.434000 	 
4.160351	 233.565000 	 
4.163786	 230.853000 	 
4.167222	 226.377000 	 
4.170657	 229.988000 	 
4.174092	 232.616000 	 
4.177527	 230.565000 	 
4.180962	 227.694000 	 
4.184397	 227.871000 	 
4.187832	 228.879000 	 
4.191268	 224.509000 	 
4.194703	 218.665000 	 
4.198138	 214.558000 	 
4.201573	 215.039000 	 
4.205008	 218.856000 	 
4.208443	 219.611000 	 
4.211878	 217.540000 	 
4.215313	 219.500000 	 
4.218749	 216.585000 	 
4.222184	 213.231000 	 
4.225619	 214.917000 	 
4.229054	 218.159000 	 
4.232489	 216.559000 	 
4.235924	 219.110000 	 
4.239359	 219.482000 	 
4.242794	 217.709000 	 
4.246229	 222.642000 	 
4.249664	 220.573000 	 
4.253099	 218.838000 	 
4.256535	 222.287000 	 
4.259970	 219.315000 	 
4.263405	 216.806000 	 
4.266840	 217.084000 	 
4.270275	 214.709000 	 
4.273710	 210.172000 	 
4.277145	 208.067000 	 
4.280581	 205.296000 	 
4.284016	 211.979000 	 
4.287451	 218.831000 	 
4.290886	 219.798000 	 
4.294321	 216.427000 	 
4.297756	 210.747000 	 
4.301191	 212.149000 	 
4.304627	 218.606000 	 
4.308062	 217.852000 	 
4.311497	 213.769000 	 
4.314932	 211.046000 	 
4.318367	 212.180000 	 
4.321802	 212.865000 	 
4.325237	 213.303000 	 
4.328672	 213.854000 	 
4.332108	 211.017000 	 
4.335543	 208.609000 	 
4.338978	 212.609000 	 
4.342413	 215.681000 	 
4.345848	 213.915000 	 
4.349283	 210.114000 	 
4.352718	 209.958000 	 
4.356153	 207.495000 	 
4.359589	 211.145000 	 
4.363023	 212.624000 	 
4.366458	 211.157000 	 
4.369894	 215.040000 	 
4.373329	 218.750000 	 
4.376764	 216.683000 	 
4.380199	 214.253000 	 
4.383634	 216.487000 	 
4.387069	 217.245000 	 
4.390504	 213.609000 	 
4.393940	 216.061000 	 
4.397375	 213.631000 	 
4.400810	 210.610000 	 
4.404245	 212.700000 	 
4.407680	 216.011000 	 
4.411115	 216.070000 	 
4.414550	 215.434000 	 
4.417985	 218.636000 	 
4.421421	 217.663000 	 
4.424856	 217.679000 	 
4.428291	 218.174000 	 
4.431726	 217.841000 	 
4.435161	 216.544000 	 
4.438596	 214.009000 	 
4.442031	 212.494000 	 
4.445467	 214.853000 	 
4.448902	 217.036000 	 
4.452337	 221.004000 	 
4.455772	 222.552000 	 
4.459207	 215.589000 	 
4.462642	 214.067000 	 
4.466077	 212.796000 	 
4.469513	 208.783000 	 
4.472948	 208.968000 	 
4.476383	 211.392000 	 
4.479818	 211.682000 	 
4.483252	 211.551000 	 
4.486688	 211.623000 	 
4.490123	 213.942000 	 
4.493558	 214.977000 	 
4.496993	 212.005000 	 
4.500428	 208.770000 	 
4.503863	 211.233000 	 
4.507299	 213.071000 	 
4.510734	 211.455000 	 
4.514169	 209.134000 	 
4.517604	 207.584000 	 
4.521039	 207.946000 	 
4.524474	 212.230000 	 
4.527909	 214.921000 	 
4.531344	 210.574000 	 
4.534780	 206.914000 	 
4.538215	 207.290000 	 
4.541650	 206.839000 	 
4.545085	 206.602000 	 
4.548520	 209.657000 	 
4.551955	 209.297000 	 
4.555390	 210.183000 	 
4.558826	 210.686000 	 
4.562261	 211.985000 	 
4.565696	 212.982000 	 
4.569131	 214.329000 	 
4.572566	 212.981000 	 
4.576001	 215.670000 	 
4.579436	 215.664000 	 
4.582871	 214.398000 	 
4.586307	 217.711000 	 
4.589742	 218.521000 	 
4.593177	 219.127000 	 
4.596612	 218.755000 	 
4.600047	 218.943000 	 
4.603482	 218.790000 	 
4.606917	 216.689000 	 
4.610352	 217.889000 	 
4.613787	 222.578000 	 
4.617222	 229.336000 	 
4.620657	 233.248000 	 
4.624093	 243.644000 	 
4.627528	 266.686000 	 
4.630963	 304.879000 	 
4.634398	 378.603000 	 
4.637833	 504.150000 	 
4.641268	 676.210000 	 
4.644703	 891.742000 	 
4.648139	 1064.960000 	 
4.651574	 1148.700000 	 
4.655009	 1115.260000 	 
4.658444	 968.663000 	 
4.661879	 803.823000 	 
4.665314	 632.606000 	 
4.668749	 497.862000 	 
4.672185	 410.124000 	 
4.675620	 350.690000 	 
4.679055	 309.532000 	 
4.682490	 288.667000 	 
4.685925	 276.650000 	 
4.689360	 269.364000 	 
4.692795	 270.660000 	 
4.696230	 278.929000 	 
4.699666	 289.974000 	 
4.703101	 315.743000 	 
4.706536	 353.521000 	 
4.709971	 417.063000 	 
4.713406	 484.721000 	 
4.716841	 537.742000 	 
4.720276	 554.475000 	 
4.723711	 514.733000 	 
4.727146	 439.817000 	 
4.730581	 360.465000 	 
4.734016	 299.665000 	 
4.737452	 264.131000 	 
4.740887	 242.490000 	 
4.744322	 233.161000 	 
4.747757	 225.149000 	 
4.751192	 220.383000 	 
4.754627	 219.901000 	 
4.758062	 222.950000 	 
4.761497	 220.821000 	 
4.764933	 214.103000 	 
4.768368	 214.901000 	 
4.771803	 215.365000 	 
4.775238	 216.321000 	 
4.778673	 215.052000 	 
4.782108	 214.226000 	 
4.785543	 218.281000 	 
4.788979	 217.511000 	 
4.792414	 214.895000 	 
4.795849	 217.048000 	 
4.799284	 214.180000 	 
4.802719	 211.795000 	 
4.806154	 209.981000 	 
4.809589	 213.347000 	 
4.813025	 215.887000 	 
4.816460	 217.718000 	 
4.819895	 219.842000 	 
4.823330	 218.823000 	 
4.826765	 221.140000 	 
4.830200	 218.161000 	 
4.833635	 216.389000 	 
4.837071	 218.235000 	 
4.840506	 219.664000 	 
4.843940	 218.289000 	 
4.847375	 216.063000 	 
4.850810	 216.820000 	 
4.854246	 223.389000 	 
4.857681	 234.186000 	 
4.861116	 250.208000 	 
4.864551	 274.086000 	 
4.867986	 296.189000 	 
4.871421	 312.897000 	 
4.874856	 307.771000 	 
4.878292	 292.008000 	 
4.881727	 270.950000 	 
4.885162	 258.423000 	 
4.888597	 247.206000 	 
4.892032	 237.277000 	 
4.895467	 231.846000 	 
4.898902	 229.636000 	 
4.902338	 230.052000 	 
4.905773	 231.016000 	 
4.909208	 230.333000 	 
4.912643	 232.744000 	 
4.916078	 245.056000 	 
4.919513	 267.811000 	 
4.922948	 301.845000 	 
4.926384	 353.002000 	 
4.929819	 427.279000 	 
4.933254	 506.558000 	 
4.936689	 577.682000 	 
4.940124	 611.800000 	 
4.943559	 592.309000 	 
4.946994	 538.835000 	 
4.950429	 466.983000 	 
4.953865	 396.554000 	 
4.957300	 342.036000 	 
4.960735	 307.368000 	 
4.964169	 283.814000 	 
4.967605	 270.813000 	 
4.971040	 261.560000 	 
4.974475	 265.863000 	 
4.977910	 279.334000 	 
4.981345	 293.370000 	 
4.984780	 303.279000 	 
4.988215	 305.091000 	 
4.991651	 301.056000 	 
4.995086	 289.313000 	 
4.998521	 275.742000 	 
5.001956	 264.469000 	 
5.005391	 262.088000 	 
5.008826	 254.113000 	 
5.012261	 241.886000 	 
5.015696	 232.960000 	 
5.019132	 228.145000 	 
5.022567	 225.632000 	 
5.026002	 220.032000 	 
5.029437	 212.621000 	 
5.032872	 212.756000 	 
5.036307	 215.739000 	 
5.039743	 213.654000 	 
5.043178	 209.631000 	 
5.046613	 212.741000 	 
5.050048	 217.144000 	 
5.053483	 217.455000 	 
5.056918	 214.293000 	 
5.060353	 212.725000 	 
5.063788	 211.077000 	 
5.067223	 209.256000 	 
5.070659	 209.824000 	 
5.074094	 211.346000 	 
5.077529	 211.240000 	 
5.080964	 213.765000 	 
5.084399	 213.494000 	 
5.087834	 213.812000 	 
5.091269	 214.417000 	 
5.094704	 216.230000 	 
5.098139	 220.885000 	 
5.101574	 221.266000 	 
5.105010	 220.239000 	 
5.108445	 221.137000 	 
5.111880	 222.305000 	 
5.115315	 228.532000 	 
5.118750	 226.764000 	 
5.122185	 226.678000 	 
5.125620	 234.282000 	 
5.129055	 246.997000 	 
