1.010345	 217.560000 	 
1.013780	 226.508000 	 
1.017215	 226.378000 	 
1.020650	 220.158000 	 
1.024086	 220.079000 	 
1.027521	 227.499000 	 
1.030956	 226.539000 	 
1.034391	 226.017000 	 
1.037826	 226.957000 	 
1.041261	 221.724000 	 
1.044696	 219.657000 	 
1.048132	 226.033000 	 
1.051567	 233.088000 	 
1.055002	 230.454000 	 
1.058437	 228.893000 	 
1.061872	 227.930000 	 
1.065307	 220.601000 	 
1.068742	 213.979000 	 
1.072177	 216.243000 	 
1.075612	 216.001000 	 
1.079048	 210.006000 	 
1.082483	 219.311000 	 
1.085918	 222.408000 	 
1.089353	 224.463000 	 
1.092788	 226.644000 	 
1.096223	 226.316000 	 
1.099658	 214.795000 	 
1.103093	 215.081000 	 
1.106529	 220.977000 	 
1.109964	 223.685000 	 
1.113399	 223.486000 	 
1.116834	 221.333000 	 
1.120269	 224.312000 	 
1.123704	 230.416000 	 
1.127139	 224.722000 	 
1.130574	 219.903000 	 
1.134009	 212.707000 	 
1.137445	 215.668000 	 
1.140880	 221.082000 	 
1.144315	 225.197000 	 
1.147750	 223.490000 	 
1.151185	 225.963000 	 
1.154620	 225.516000 	 
1.158055	 225.552000 	 
1.161490	 222.926000 	 
1.164926	 219.921000 	 
1.168361	 216.900000 	 
1.171796	 212.185000 	 
1.175231	 213.491000 	 
1.178666	 226.498000 	 
1.182101	 230.716000 	 
1.185536	 227.085000 	 
1.188971	 213.175000 	 
1.192406	 211.179000 	 
1.195842	 213.499000 	 
1.199277	 214.669000 	 
1.202712	 219.861000 	 
1.206147	 221.736000 	 
1.209582	 223.605000 	 
1.213017	 224.177000 	 
1.216452	 224.756000 	 
1.219888	 221.722000 	 
1.223323	 226.261000 	 
1.226758	 228.257000 	 
1.230193	 227.381000 	 
1.233628	 218.051000 	 
1.237063	 212.459000 	 
1.240498	 209.418000 	 
1.243933	 217.059000 	 
1.247369	 215.287000 	 
1.250804	 220.484000 	 
1.254239	 226.770000 	 
1.257674	 227.396000 	 
1.261109	 227.276000 	 
1.264544	 222.020000 	 
1.267979	 214.781000 	 
1.271414	 212.421000 	 
1.274849	 215.716000 	 
1.278285	 222.430000 	 
1.281720	 224.814000 	 
1.285155	 227.781000 	 
1.288590	 233.329000 	 
1.292025	 230.462000 	 
1.295460	 216.740000 	 
1.298895	 210.713000 	 
1.302330	 213.090000 	 
1.305765	 213.144000 	 
1.309201	 217.919000 	 
1.312636	 229.308000 	 
1.316071	 234.336000 	 
1.319506	 226.030000 	 
1.322941	 216.802000 	 
1.326376	 214.632000 	 
1.329811	 205.483000 	 
1.333247	 208.529000 	 
1.336682	 211.506000 	 
1.340117	 209.686000 	 
1.343552	 221.544000 	 
1.346987	 224.718000 	 
1.350422	 222.938000 	 
1.353857	 227.495000 	 
1.357292	 226.083000 	 
1.360727	 225.863000 	 
1.364163	 226.202000 	 
1.367598	 217.066000 	 
1.371033	 212.966000 	 
1.374468	 209.598000 	 
1.377903	 215.591000 	 
1.381338	 225.679000 	 
1.384773	 225.848000 	 
1.388208	 223.604000 	 
1.391644	 221.211000 	 
1.395079	 219.197000 	 
1.398514	 223.953000 	 
1.401949	 230.610000 	 
1.405384	 220.585000 	 
1.408819	 218.914000 	 
1.412254	 223.434000 	 
1.415689	 222.300000 	 
1.419124	 217.300000 	 
1.422560	 216.828000 	 
1.425995	 221.596000 	 
1.429430	 223.069000 	 
1.432865	 219.945000 	 
1.436300	 221.521000 	 
1.439735	 232.019000 	 
1.443170	 235.760000 	 
1.446605	 228.801000 	 
1.450041	 220.290000 	 
1.453476	 216.612000 	 
1.456911	 221.460000 	 
1.460346	 221.578000 	 
1.463781	 222.601000 	 
1.467216	 223.154000 	 
1.470651	 225.405000 	 
1.474087	 227.126000 	 
1.477521	 230.115000 	 
1.480957	 225.787000 	 
1.484392	 225.052000 	 
1.487827	 229.956000 	 
1.491262	 232.452000 	 
1.494697	 227.783000 	 
1.498132	 225.092000 	 
1.501567	 226.605000 	 
1.505003	 229.757000 	 
1.508438	 224.649000 	 
1.511873	 221.373000 	 
1.515308	 217.805000 	 
1.518743	 219.038000 	 
1.522178	 221.641000 	 
1.525613	 221.115000 	 
1.529048	 216.266000 	 
1.532484	 225.704000 	 
1.535919	 237.543000 	 
1.539354	 230.073000 	 
1.542789	 225.294000 	 
1.546224	 227.872000 	 
1.549659	 225.989000 	 
1.553094	 219.800000 	 
1.556529	 216.831000 	 
1.559965	 225.945000 	 
1.563400	 229.186000 	 
1.566835	 224.800000 	 
1.570270	 222.075000 	 
1.573705	 225.419000 	 
1.577140	 230.462000 	 
1.580575	 242.010000 	 
1.584010	 245.413000 	 
1.587446	 241.914000 	 
1.590881	 244.844000 	 
1.594316	 252.223000 	 
1.597751	 264.728000 	 
1.601186	 277.620000 	 
1.604621	 301.241000 	 
1.608056	 342.241000 	 
1.611491	 476.224000 	 
1.614926	 752.403000 	 
1.618362	 1130.820000 	 
1.621797	 1511.180000 	 
1.625232	 1527.420000 	 
1.628667	 1307.540000 	 
1.632102	 924.104000 	 
1.635537	 685.653000 	 
1.638972	 531.682000 	 
1.642407	 446.489000 	 
1.645843	 424.225000 	 
1.649278	 438.170000 	 
1.652713	 478.478000 	 
1.656148	 590.659000 	 
1.659583	 792.091000 	 
1.663018	 1075.080000 	 
1.666453	 1252.900000 	 
1.669888	 1199.930000 	 
1.673324	 927.816000 	 
1.676759	 600.191000 	 
1.680194	 401.281000 	 
1.683629	 302.029000 	 
1.687064	 268.596000 	 
1.690499	 253.282000 	 
1.693934	 241.551000 	 
1.697369	 231.975000 	 
1.700805	 228.713000 	 
1.704240	 231.402000 	 
1.707675	 243.402000 	 
1.711110	 235.246000 	 
1.714545	 236.772000 	 
1.717980	 234.731000 	 
1.721415	 224.393000 	 
1.724850	 215.874000 	 
1.728285	 216.130000 	 
1.731721	 216.964000 	 
1.735156	 221.946000 	 
1.738591	 229.516000 	 
1.742026	 229.102000 	 
1.745461	 225.818000 	 
1.748896	 222.094000 	 
1.752331	 223.554000 	 
1.755766	 226.526000 	 
1.759202	 228.836000 	 
1.762637	 223.637000 	 
1.766072	 227.921000 	 
1.769507	 226.894000 	 
1.772942	 225.297000 	 
1.776377	 226.678000 	 
1.779812	 229.255000 	 
1.783247	 228.139000 	 
1.786683	 224.269000 	 
1.790118	 220.804000 	 
1.793553	 221.661000 	 
1.796988	 220.686000 	 
1.800423	 221.566000 	 
1.803858	 223.740000 	 
1.807293	 217.483000 	 
1.810728	 214.163000 	 
1.814163	 209.532000 	 
1.817599	 216.987000 	 
1.821034	 215.159000 	 
1.824469	 213.468000 	 
1.827904	 212.085000 	 
1.831339	 217.773000 	 
1.834774	 223.992000 	 
1.838209	 216.168000 	 
1.841644	 216.221000 	 
1.845080	 225.791000 	 
1.848515	 223.102000 	 
1.851950	 220.313000 	 
1.855385	 220.619000 	 
1.858820	 211.464000 	 
1.862255	 209.020000 	 
1.865690	 211.423000 	 
1.869125	 208.680000 	 
1.872561	 210.767000 	 
1.875996	 211.929000 	 
1.879431	 215.961000 	 
1.882866	 220.991000 	 
1.886301	 225.627000 	 
1.889736	 226.003000 	 
1.893171	 219.857000 	 
1.896606	 223.022000 	 
1.900041	 219.873000 	 
1.903477	 216.170000 	 
1.906912	 214.691000 	 
1.910347	 213.197000 	 
1.913782	 209.165000 	 
1.917217	 212.343000 	 
1.920652	 209.772000 	 
1.924087	 214.355000 	 
1.927523	 222.229000 	 
1.930958	 224.581000 	 
1.934393	 221.744000 	 
1.937828	 217.524000 	 
1.941263	 221.171000 	 
1.944698	 220.441000 	 
1.948133	 216.261000 	 
1.951568	 215.844000 	 
1.955003	 216.549000 	 
1.958439	 216.883000 	 
1.961874	 217.265000 	 
1.965309	 221.954000 	 
1.968744	 223.231000 	 
1.972179	 223.459000 	 
1.975614	 224.970000 	 
1.979049	 227.602000 	 
1.982485	 225.515000 	 
1.985920	 220.310000 	 
1.989355	 217.011000 	 
1.992790	 222.279000 	 
1.996225	 228.960000 	 
1.999660	 228.573000 	 
2.003095	 224.221000 	 
2.006530	 223.156000 	 
2.009965	 219.102000 	 
2.013401	 224.692000 	 
2.016836	 229.458000 	 
2.020271	 223.497000 	 
2.023706	 218.769000 	 
2.027141	 219.436000 	 
2.030576	 220.427000 	 
2.034011	 215.145000 	 
2.037446	 214.659000 	 
2.040881	 214.752000 	 
2.044316	 213.704000 	 
2.047752	 215.598000 	 
2.051187	 220.951000 	 
2.054622	 222.369000 	 
2.058057	 220.341000 	 
2.061492	 220.784000 	 
2.064927	 218.517000 	 
2.068363	 217.953000 	 
2.071798	 224.457000 	 
2.075233	 224.749000 	 
2.078668	 219.355000 	 
2.082103	 217.998000 	 
2.085538	 221.727000 	 
2.088973	 226.023000 	 
2.092408	 224.510000 	 
2.095843	 223.622000 	 
2.099279	 218.582000 	 
2.102714	 222.764000 	 
2.106149	 223.233000 	 
2.109584	 217.130000 	 
2.113019	 220.808000 	 
2.116454	 233.054000 	 
2.119889	 238.460000 	 
2.123324	 235.386000 	 
2.126759	 229.547000 	 
2.130195	 232.626000 	 
2.133630	 236.224000 	 
2.137065	 236.110000 	 
2.140500	 222.364000 	 
2.143935	 215.436000 	 
2.147370	 217.559000 	 
2.150806	 221.245000 	 
2.154241	 220.210000 	 
2.157675	 218.023000 	 
2.161111	 220.623000 	 
2.164546	 223.952000 	 
2.167981	 227.863000 	 
2.171416	 230.520000 	 
2.174851	 226.282000 	 
2.178286	 223.086000 	 
2.181721	 224.900000 	 
2.185157	 227.158000 	 
2.188592	 228.354000 	 
2.192027	 230.694000 	 
2.195462	 227.517000 	 
2.198897	 229.204000 	 
2.202332	 240.519000 	 
2.205767	 242.808000 	 
2.209203	 242.928000 	 
2.212638	 246.295000 	 
2.216073	 251.249000 	 
2.219508	 249.187000 	 
2.222943	 244.660000 	 
2.226378	 248.602000 	 
2.229813	 249.462000 	 
2.233248	 245.351000 	 
2.236683	 239.867000 	 
2.240118	 247.588000 	 
2.243554	 251.050000 	 
2.246989	 253.254000 	 
2.250424	 258.701000 	 
2.253859	 265.926000 	 
2.257294	 272.543000 	 
2.260729	 271.463000 	 
2.264164	 274.690000 	 
2.267600	 283.381000 	 
2.271035	 288.859000 	 
2.274470	 294.621000 	 
2.277905	 302.214000 	 
2.281340	 313.504000 	 
2.284775	 320.032000 	 
2.288210	 326.528000 	 
2.291645	 339.395000 	 
2.295080	 359.455000 	 
2.298516	 396.089000 	 
2.301951	 467.134000 	 
2.305386	 612.621000 	 
2.308821	 945.341000 	 
2.312256	 1895.260000 	 
2.315691	 3742.710000 	 
2.319126	 6382.490000 	 
2.322561	 9114.670000 	 
2.325997	 9511.790000 	 
2.329432	 8129.540000 	 
2.332867	 5368.740000 	 
2.336302	 3352.300000 	 
2.339737	 2129.990000 	 
2.343172	 1639.580000 	 
2.346607	 1687.220000 	 
2.350042	 2048.230000 	 
2.353477	 2595.170000 	 
2.356913	 2916.760000 	 
2.360348	 2708.060000 	 
2.363783	 2060.720000 	 
2.367218	 1284.350000 	 
2.370653	 792.422000 	 
2.374088	 528.957000 	 
2.377523	 413.724000 	 
2.380959	 362.575000 	 
2.384394	 333.223000 	 
2.387829	 316.322000 	 
2.391264	 296.635000 	 
2.394699	 285.302000 	 
2.398134	 274.146000 	 
2.401569	 267.965000 	 
2.405004	 264.556000 	 
2.408439	 268.057000 	 
2.411875	 265.389000 	 
2.415310	 256.535000 	 
2.418745	 249.758000 	 
2.422180	 243.004000 	 
2.425615	 240.129000 	 
2.429050	 244.909000 	 
2.432485	 245.533000 	 
2.435920	 246.106000 	 
2.439356	 242.302000 	 
2.442791	 236.273000 	 
2.446226	 233.312000 	 
2.449661	 229.086000 	 
2.453096	 229.334000 	 
2.456531	 227.376000 	 
2.459966	 228.627000 	 
2.463401	 226.784000 	 
2.466836	 226.081000 	 
2.470272	 231.621000 	 
2.473707	 231.031000 	 
2.477142	 223.802000 	 
2.480577	 218.442000 	 
2.484012	 224.146000 	 
2.487447	 226.008000 	 
2.490882	 221.134000 	 
2.494318	 219.859000 	 
2.497753	 217.490000 	 
2.501188	 211.325000 	 
2.504623	 214.417000 	 
2.508058	 225.483000 	 
2.511493	 225.934000 	 
2.514928	 214.878000 	 
2.518363	 213.228000 	 
2.521798	 216.246000 	 
2.525234	 220.151000 	 
2.528669	 218.944000 	 
2.532104	 216.328000 	 
2.535539	 211.029000 	 
2.538974	 212.044000 	 
2.542409	 217.208000 	 
2.545844	 220.051000 	 
2.549279	 224.185000 	 
2.552715	 218.376000 	 
2.556150	 213.649000 	 
2.559585	 213.555000 	 
2.563020	 214.539000 	 
2.566455	 212.808000 	 
2.569890	 211.933000 	 
2.573325	 211.756000 	 
2.576760	 211.180000 	 
2.580195	 211.910000 	 
2.583631	 210.655000 	 
2.587066	 211.726000 	 
2.590501	 212.415000 	 
2.593936	 209.019000 	 
2.597371	 205.163000 	 
2.600806	 207.044000 	 
2.604241	 205.191000 	 
2.607677	 208.679000 	 
2.611112	 210.137000 	 
2.614547	 204.406000 	 
2.617982	 202.156000 	 
2.621417	 200.375000 	 
2.624852	 202.990000 	 
2.628287	 201.927000 	 
2.631723	 205.151000 	 
2.635158	 207.154000 	 
2.638593	 213.167000 	 
2.642028	 213.362000 	 
2.645463	 210.367000 	 
2.648898	 204.888000 	 
2.652333	 206.860000 	 
2.655768	 210.969000 	 
2.659203	 212.675000 	 
2.662638	 210.910000 	 
2.666074	 211.521000 	 
2.669509	 208.175000 	 
2.672944	 206.650000 	 
2.676379	 204.903000 	 
2.679814	 208.581000 	 
2.683249	 207.064000 	 
2.686684	 203.618000 	 
2.690120	 198.547000 	 
2.693555	 200.060000 	 
2.696990	 201.474000 	 
2.700425	 207.512000 	 
2.703860	 208.121000 	 
2.707295	 209.345000 	 
2.710730	 203.362000 	 
2.714165	 202.723000 	 
2.717600	 208.635000 	 
2.721036	 207.198000 	 
2.724471	 201.726000 	 
2.727906	 205.190000 	 
2.731341	 206.551000 	 
2.734776	 209.611000 	 
2.738211	 210.687000 	 
2.741646	 214.131000 	 
2.745081	 211.034000 	 
2.748517	 205.090000 	 
2.751952	 204.334000 	 
2.755387	 201.655000 	 
2.758822	 202.062000 	 
2.762257	 207.667000 	 
2.765692	 216.057000 	 
2.769127	 212.023000 	 
2.772562	 206.656000 	 
2.775997	 202.837000 	 
2.779433	 203.191000 	 
2.782868	 206.872000 	 
2.786303	 206.453000 	 
2.789738	 206.151000 	 
2.793173	 207.363000 	 
2.796608	 211.012000 	 
2.800043	 211.692000 	 
2.803479	 213.753000 	 
2.806914	 216.829000 	 
2.810349	 216.502000 	 
2.813784	 219.942000 	 
2.817219	 218.884000 	 
2.820654	 220.316000 	 
2.824089	 226.500000 	 
2.827524	 232.771000 	 
2.830959	 244.697000 	 
2.834395	 256.227000 	 
2.837830	 280.177000 	 
2.841265	 344.074000 	 
2.844700	 477.289000 	 
2.848135	 725.885000 	 
2.851570	 1150.710000 	 
2.855005	 1700.940000 	 
2.858440	 2055.520000 	 
2.861876	 2124.400000 	 
2.865311	 1667.000000 	 
2.868746	 1130.930000 	 
2.872181	 686.475000 	 
2.875616	 445.336000 	 
2.879051	 331.757000 	 
2.882486	 275.090000 	 
2.885921	 249.489000 	 
2.889356	 235.242000 	 
2.892792	 223.615000 	 
2.896227	 224.850000 	 
2.899662	 220.410000 	 
2.903097	 213.679000 	 
2.906532	 210.611000 	 
2.909967	 217.634000 	 
2.913402	 225.280000 	 
2.916838	 225.935000 	 
2.920273	 219.958000 	 
2.923708	 223.525000 	 
2.927143	 222.391000 	 
2.930578	 217.786000 	 
2.934013	 212.468000 	 
2.937448	 208.174000 	 
2.940883	 210.555000 	 
2.944318	 213.262000 	 
2.947753	 215.478000 	 
2.951189	 213.426000 	 
2.954624	 210.492000 	 
2.958059	 214.323000 	 
2.961494	 212.234000 	 
2.964929	 206.748000 	 
2.968364	 206.509000 	 
2.971799	 209.214000 	 
2.975235	 206.700000 	 
2.978670	 206.112000 	 
2.982105	 212.534000 	 
2.985540	 214.738000 	 
2.988975	 212.390000 	 
2.992410	 210.516000 	 
2.995845	 214.412000 	 
2.999280	 214.217000 	 
3.002715	 213.703000 	 
3.006150	 211.219000 	 
3.009586	 211.538000 	 
3.013021	 212.913000 	 
3.016456	 215.416000 	 
3.019891	 212.684000 	 
3.023326	 210.762000 	 
3.026761	 204.077000 	 
3.030196	 200.776000 	 
3.033632	 207.864000 	 
3.037067	 215.751000 	 
3.040502	 217.006000 	 
3.043937	 208.621000 	 
3.047372	 203.256000 	 
3.050807	 208.843000 	 
3.054242	 213.135000 	 
3.057678	 219.566000 	 
3.061113	 217.645000 	 
3.064548	 209.946000 	 
3.067983	 210.856000 	 
3.071418	 213.859000 	 
3.074853	 210.726000 	 
3.078288	 207.514000 	 
3.081723	 201.888000 	 
3.085158	 198.825000 	 
3.088594	 202.013000 	 
3.092029	 204.945000 	 
3.095464	 207.165000 	 
3.098899	 206.391000 	 
3.102334	 209.561000 	 
3.105769	 210.000000 	 
3.109204	 212.788000 	 
3.112639	 215.029000 	 
3.116075	 212.891000 	 
3.119510	 212.263000 	 
3.122945	 206.946000 	 
3.126380	 208.117000 	 
3.129815	 207.626000 	 
3.133250	 207.519000 	 
3.136685	 203.192000 	 
3.140120	 200.342000 	 
3.143555	 196.003000 	 
3.146990	 196.689000 	 
3.150426	 200.456000 	 
3.153861	 207.883000 	 
3.157296	 209.721000 	 
3.160731	 210.579000 	 
3.164166	 212.150000 	 
3.167601	 210.408000 	 
3.171037	 211.171000 	 
3.174472	 212.982000 	 
3.177907	 210.938000 	 
3.181342	 213.683000 	 
3.184777	 212.391000 	 
3.188212	 209.699000 	 
3.191647	 216.110000 	 
3.195082	 217.736000 	 
3.198517	 223.587000 	 
3.201953	 218.887000 	 
3.205388	 216.109000 	 
3.208823	 220.624000 	 
3.212258	 223.108000 	 
3.215693	 229.140000 	 
3.219128	 231.251000 	 
3.222563	 239.190000 	 
3.225998	 254.490000 	 
3.229433	 284.101000 	 
3.232869	 366.979000 	 
3.236304	 526.996000 	 
3.239739	 772.923000 	 
3.243174	 1076.890000 	 
3.246609	 1217.480000 	 
3.250044	 1191.710000 	 
3.253479	 1005.010000 	 
3.256914	 814.862000 	 
3.260349	 639.180000 	 
3.263785	 501.183000 	 
3.267220	 416.709000 	 
3.270655	 358.381000 	 
3.274090	 330.592000 	 
3.277525	 311.356000 	 
3.280960	 299.960000 	 
3.284396	 296.749000 	 
3.287831	 297.493000 	 
3.291266	 296.220000 	 
3.294701	 294.354000 	 
3.298136	 288.385000 	 
3.301571	 292.888000 	 
3.305006	 301.015000 	 
3.308441	 310.895000 	 
3.311876	 332.404000 	 
3.315311	 366.465000 	 
3.318747	 428.427000 	 
3.322182	 534.714000 	 
3.325617	 713.320000 	 
3.329052	 1018.110000 	 
3.332487	 1328.920000 	 
3.335922	 1527.170000 	 
3.339357	 1488.540000 	 
3.342792	 1202.260000 	 
3.346228	 861.564000 	 
3.349663	 566.614000 	 
3.353098	 400.949000 	 
3.356533	 314.567000 	 
3.359968	 276.012000 	 
3.363403	 252.253000 	 
3.366838	 243.645000 	 
3.370273	 245.457000 	 
3.373709	 240.374000 	 
3.377144	 233.469000 	 
3.380579	 225.100000 	 
3.384014	 222.829000 	 
3.387449	 224.595000 	 
3.390884	 228.006000 	 
3.394319	 224.621000 	 
3.397754	 221.843000 	 
3.401190	 215.464000 	 
3.404625	 214.190000 	 
3.408060	 217.291000 	 
3.411495	 218.062000 	 
3.414930	 214.068000 	 
3.418365	 216.672000 	 
3.421800	 216.782000 	 
3.425235	 218.310000 	 
3.428670	 215.397000 	 
3.432106	 211.663000 	 
3.435541	 206.648000 	 
3.438976	 203.828000 	 
3.442411	 206.748000 	 
3.445846	 213.499000 	 
3.449281	 216.919000 	 
3.452716	 218.932000 	 
3.456151	 215.755000 	 
3.459587	 208.550000 	 
3.463022	 211.756000 	 
3.466457	 214.324000 	 
3.469892	 211.279000 	 
3.473327	 213.353000 	 
3.476762	 213.249000 	 
3.480197	 212.494000 	 
3.483633	 211.496000 	 
3.487068	 211.567000 	 
3.490503	 210.312000 	 
3.493938	 207.350000 	 
3.497373	 211.414000 	 
3.500808	 213.113000 	 
3.504243	 207.649000 	 
3.507678	 209.046000 	 
3.511113	 212.449000 	 
3.514549	 215.803000 	 
3.517984	 211.903000 	 
3.521419	 204.558000 	 
3.524854	 206.146000 	 
3.528289	 210.492000 	 
3.531724	 210.966000 	 
3.535159	 209.540000 	 
3.538594	 213.971000 	 
3.542030	 220.460000 	 
3.545465	 222.427000 	 
3.548900	 219.980000 	 
3.552335	 220.146000 	 
3.555770	 221.447000 	 
3.559205	 211.923000 	 
3.562640	 211.279000 	 
3.566075	 212.384000 	 
3.569510	 214.310000 	 
3.572946	 214.453000 	 
3.576381	 213.220000 	 
3.579816	 213.851000 	 
3.583251	 211.939000 	 
3.586686	 213.222000 	 
3.590121	 213.239000 	 
3.593556	 211.918000 	 
3.596992	 213.156000 	 
3.600427	 217.218000 	 
3.603862	 222.816000 	 
3.607297	 228.052000 	 
3.610732	 228.225000 	 
3.614167	 230.263000 	 
3.617602	 236.235000 	 
3.621037	 246.155000 	 
3.624472	 256.991000 	 
3.627908	 272.364000 	 
3.631343	 301.453000 	 
3.634778	 380.116000 	 
3.638213	 516.796000 	 
3.641648	 708.906000 	 
3.645083	 896.166000 	 
3.648518	 969.185000 	 
3.651953	 927.690000 	 
3.655389	 782.734000 	 
3.658824	 627.201000 	 
3.662259	 493.097000 	 
3.665694	 397.807000 	 
3.669129	 351.946000 	 
3.672564	 328.990000 	 
3.675999	 315.663000 	 
3.679434	 305.747000 	 
3.682869	 304.699000 	 
3.686305	 307.306000 	 
3.689740	 325.149000 	 
3.693175	 359.344000 	 
3.696610	 404.435000 	 
3.700045	 454.487000 	 
3.703480	 509.337000 	 
3.706915	 551.606000 	 
3.710351	 557.487000 	 
3.713786	 528.760000 	 
3.717221	 486.767000 	 
3.720656	 461.600000 	 
3.724091	 460.493000 	 
3.727526	 466.698000 	 
3.730961	 454.268000 	 
3.734396	 409.748000 	 
3.737831	 350.556000 	 
3.741267	 300.771000 	 
3.744702	 267.545000 	 
3.748137	 245.403000 	 
3.751572	 238.901000 	 
3.755007	 233.261000 	 
3.758442	 225.841000 	 
3.761877	 224.578000 	 
3.765312	 224.172000 	 
3.768748	 226.502000 	 
3.772183	 225.439000 	 
3.775618	 227.626000 	 
3.779053	 227.639000 	 
3.782488	 224.924000 	 
3.785923	 222.365000 	 
3.789358	 221.706000 	 
3.792793	 223.488000 	 
3.796228	 220.081000 	 
3.799663	 219.005000 	 
3.803099	 218.147000 	 
3.806534	 221.749000 	 
3.809969	 221.548000 	 
3.813404	 223.825000 	 
3.816839	 222.359000 	 
3.820274	 216.780000 	 
3.823710	 219.823000 	 
3.827145	 221.472000 	 
3.830580	 222.114000 	 
3.834015	 224.918000 	 
3.837450	 222.334000 	 
3.840885	 219.178000 	 
3.844320	 220.543000 	 
3.847755	 221.241000 	 
3.851190	 224.508000 	 
3.854626	 226.012000 	 
3.858061	 224.817000 	 
3.861496	 223.274000 	 
3.864931	 224.559000 	 
3.868366	 225.413000 	 
3.871801	 224.289000 	 
3.875236	 224.931000 	 
3.878671	 226.958000 	 
3.882106	 222.663000 	 
3.885542	 221.903000 	 
3.888977	 224.039000 	 
3.892412	 228.154000 	 
3.895847	 227.677000 	 
3.899282	 225.173000 	 
3.902717	 228.602000 	 
3.906153	 231.876000 	 
3.909587	 228.046000 	 
3.913022	 226.496000 	 
3.916458	 228.733000 	 
3.919893	 234.227000 	 
3.923328	 233.640000 	 
3.926763	 233.648000 	 
3.930198	 230.589000 	 
3.933633	 229.783000 	 
3.937069	 234.187000 	 
3.940504	 236.627000 	 
3.943939	 236.808000 	 
3.947374	 235.863000 	 
3.950809	 238.457000 	 
3.954244	 238.115000 	 
3.957679	 241.244000 	 
3.961114	 244.849000 	 
3.964549	 242.752000 	 
3.967984	 243.400000 	 
3.971420	 251.060000 	 
3.974855	 257.624000 	 
3.978290	 265.947000 	 
3.981725	 284.893000 	 
3.985160	 301.342000 	 
3.988595	 328.554000 	 
3.992030	 408.034000 	 
3.995465	 572.750000 	 
3.998901	 855.329000 	 
4.002336	 1277.620000 	 
4.005771	 1670.480000 	 
4.009206	 1900.430000 	 
4.012641	 1884.420000 	 
4.016076	 1640.800000 	 
4.019511	 1327.570000 	 
4.022946	 1024.300000 	 
4.026382	 813.007000 	 
4.029817	 682.308000 	 
4.033252	 608.210000 	 
4.036687	 593.597000 	 
4.040122	 610.098000 	 
4.043557	 667.571000 	 
4.046992	 793.233000 	 
4.050427	 993.181000 	 
4.053863	 1277.610000 	 
4.057298	 1671.780000 	 
4.060733	 2037.290000 	 
4.064168	 2250.320000 	 
4.067603	 2213.320000 	 
4.071038	 1895.480000 	 
4.074473	 1464.750000 	 
4.077909	 1012.760000 	 
4.081344	 692.297000 	 
4.084779	 490.440000 	 
4.088214	 371.898000 	 
4.091649	 318.417000 	 
4.095084	 293.933000 	 
4.098519	 280.426000 	 
4.101954	 271.354000 	 
4.105390	 263.954000 	 
4.108825	 259.339000 	 
4.112260	 252.120000 	 
4.115695	 250.621000 	 
4.119130	 249.157000 	 
4.122565	 248.545000 	 
4.126000	 245.442000 	 
4.129435	 241.950000 	 
4.132870	 246.809000 	 
4.136305	 245.875000 	 
4.139741	 241.842000 	 
4.143176	 235.656000 	 
4.146611	 235.174000 	 
4.150046	 233.794000 	 
4.153481	 229.763000 	 
4.156916	 227.973000 	 
4.160351	 231.919000 	 
4.163786	 230.170000 	 
4.167222	 229.437000 	 
4.170657	 232.615000 	 
4.174092	 234.014000 	 
4.177527	 232.960000 	 
4.180962	 226.670000 	 
4.184397	 227.538000 	 
4.187832	 227.753000 	 
4.191268	 224.291000 	 
4.194703	 223.469000 	 
4.198138	 219.569000 	 
4.201573	 221.836000 	 
4.205008	 223.535000 	 
4.208443	 223.560000 	 
4.211878	 220.767000 	 
4.215313	 221.134000 	 
4.218749	 219.730000 	 
4.222184	 221.093000 	 
4.225619	 224.603000 	 
4.229054	 225.983000 	 
4.232489	 219.887000 	 
4.235924	 216.775000 	 
4.239359	 213.351000 	 
4.242794	 213.435000 	 
4.246229	 216.311000 	 
4.249664	 216.779000 	 
4.253099	 219.830000 	 
4.256535	 221.609000 	 
4.259970	 218.966000 	 
4.263405	 216.993000 	 
4.266840	 219.856000 	 
4.270275	 218.206000 	 
4.273710	 215.723000 	 
4.277145	 213.235000 	 
4.280581	 211.261000 	 
4.284016	 213.523000 	 
4.287451	 220.956000 	 
4.290886	 222.261000 	 
4.294321	 217.887000 	 
4.297756	 216.887000 	 
4.301191	 214.277000 	 
4.304627	 214.548000 	 
4.308062	 215.332000 	 
4.311497	 215.433000 	 
4.314932	 217.398000 	 
4.318367	 220.375000 	 
4.321802	 219.643000 	 
4.325237	 214.695000 	 
4.328672	 216.326000 	 
4.332108	 218.811000 	 
4.335543	 217.174000 	 
4.338978	 210.690000 	 
4.342413	 210.464000 	 
4.345848	 210.616000 	 
4.349283	 213.745000 	 
4.352718	 210.705000 	 
4.356153	 215.171000 	 
4.359589	 218.914000 	 
4.363023	 215.691000 	 
4.366458	 210.977000 	 
4.369894	 211.286000 	 
4.373329	 211.409000 	 
4.376764	 210.286000 	 
4.380199	 207.780000 	 
4.383634	 212.420000 	 
4.387069	 216.111000 	 
4.390504	 215.662000 	 
4.393940	 218.981000 	 
4.397375	 221.320000 	 
4.400810	 218.392000 	 
4.404245	 219.764000 	 
4.407680	 217.271000 	 
4.411115	 215.446000 	 
4.414550	 217.876000 	 
4.417985	 216.215000 	 
4.421421	 213.601000 	 
4.424856	 209.956000 	 
4.428291	 210.380000 	 
4.431726	 207.453000 	 
4.435161	 207.839000 	 
4.438596	 209.841000 	 
4.442031	 208.107000 	 
4.445467	 210.912000 	 
4.448902	 213.187000 	 
4.452337	 215.477000 	 
4.455772	 218.544000 	 
4.459207	 217.805000 	 
4.462642	 214.818000 	 
4.466077	 211.060000 	 
4.469513	 207.728000 	 
4.472948	 207.211000 	 
4.476383	 210.411000 	 
4.479818	 208.027000 	 
4.483252	 203.654000 	 
4.486688	 205.332000 	 
4.490123	 209.426000 	 
4.493558	 213.943000 	 
4.496993	 214.882000 	 
4.500428	 217.223000 	 
4.503863	 219.984000 	 
4.507299	 215.736000 	 
4.510734	 209.614000 	 
4.514169	 211.660000 	 
4.517604	 213.171000 	 
4.521039	 212.589000 	 
4.524474	 216.546000 	 
4.527909	 215.122000 	 
4.531344	 211.561000 	 
4.534780	 211.527000 	 
4.538215	 212.430000 	 
4.541650	 214.488000 	 
4.545085	 215.522000 	 
4.548520	 213.471000 	 
4.551955	 214.641000 	 
4.555390	 211.635000 	 
4.558826	 211.506000 	 
4.562261	 211.811000 	 
4.565696	 212.773000 	 
4.569131	 219.258000 	 
4.572566	 222.222000 	 
4.576001	 220.217000 	 
4.579436	 220.422000 	 
4.582871	 219.528000 	 
4.586307	 218.451000 	 
4.589742	 217.136000 	 
4.593177	 216.042000 	 
4.596612	 216.446000 	 
4.600047	 217.887000 	 
4.603482	 221.087000 	 
4.606917	 222.552000 	 
4.610352	 221.262000 	 
4.613787	 223.185000 	 
4.617222	 229.876000 	 
4.620657	 237.934000 	 
4.624093	 248.745000 	 
4.627528	 268.395000 	 
4.630963	 310.212000 	 
4.634398	 392.245000 	 
4.637833	 515.106000 	 
4.641268	 687.011000 	 
4.644703	 895.924000 	 
4.648139	 1065.610000 	 
4.651574	 1137.900000 	 
4.655009	 1102.270000 	 
4.658444	 963.237000 	 
4.661879	 793.306000 	 
4.665314	 622.493000 	 
4.668749	 493.664000 	 
4.672185	 404.319000 	 
4.675620	 348.823000 	 
4.679055	 314.052000 	 
4.682490	 297.613000 	 
4.685925	 289.231000 	 
4.689360	 287.313000 	 
4.692795	 282.422000 	 
4.696230	 282.428000 	 
4.699666	 298.369000 	 
4.703101	 323.142000 	 
4.706536	 361.116000 	 
4.709971	 420.774000 	 
4.713406	 490.069000 	 
4.716841	 537.631000 	 
4.720276	 553.935000 	 
4.723711	 507.568000 	 
4.727146	 436.232000 	 
4.730581	 360.170000 	 
4.734016	 295.135000 	 
4.737452	 261.902000 	 
4.740887	 244.339000 	 
4.744322	 234.223000 	 
4.747757	 224.701000 	 
4.751192	 220.565000 	 
4.754627	 224.525000 	 
4.758062	 222.831000 	 
4.761497	 222.382000 	 
4.764933	 218.412000 	 
4.768368	 218.539000 	 
4.771803	 216.968000 	 
4.775238	 216.641000 	 
4.778673	 219.698000 	 
4.782108	 219.377000 	 
4.785543	 213.586000 	 
4.788979	 214.035000 	 
4.792414	 216.163000 	 
4.795849	 219.592000 	 
4.799284	 220.894000 	 
4.802719	 218.213000 	 
4.806154	 218.663000 	 
4.809589	 216.317000 	 
4.813025	 215.751000 	 
4.816460	 215.540000 	 
4.819895	 214.603000 	 
4.823330	 218.408000 	 
4.826765	 217.997000 	 
4.830200	 221.913000 	 
4.833635	 215.856000 	 
4.837071	 212.335000 	 
4.840506	 210.933000 	 
4.843940	 216.265000 	 
4.847375	 218.609000 	 
4.850810	 214.287000 	 
4.854246	 215.107000 	 
4.857681	 228.763000 	 
4.861116	 252.182000 	 
4.864551	 272.464000 	 
4.867986	 288.037000 	 
4.871421	 302.939000 	 
4.874856	 307.456000 	 
4.878292	 297.648000 	 
4.881727	 283.159000 	 
4.885162	 260.935000 	 
4.888597	 244.797000 	 
4.892032	 236.947000 	 
4.895467	 232.492000 	 
4.898902	 231.710000 	 
4.902338	 228.994000 	 
4.905773	 226.005000 	 
4.909208	 229.291000 	 
4.912643	 230.796000 	 
4.916078	 240.489000 	 
4.919513	 266.280000 	 
4.922948	 306.940000 	 
4.926384	 364.265000 	 
4.929819	 439.252000 	 
4.933254	 514.647000 	 
4.936689	 576.932000 	 
4.940124	 600.900000 	 
4.943559	 580.419000 	 
4.946994	 524.358000 	 
4.950429	 459.395000 	 
4.953865	 392.628000 	 
4.957300	 337.767000 	 
4.960735	 298.195000 	 
4.964169	 278.228000 	 
4.967605	 267.200000 	 
4.971040	 268.414000 	 
4.974475	 275.382000 	 
4.977910	 285.236000 	 
4.981345	 293.668000 	 
4.984780	 303.271000 	 
4.988215	 309.857000 	 
4.991651	 307.137000 	 
4.995086	 293.751000 	 
4.998521	 280.070000 	 
5.001956	 269.587000 	 
5.005391	 261.323000 	 
5.008826	 255.178000 	 
5.012261	 245.833000 	 
5.015696	 235.921000 	 
5.019132	 226.288000 	 
5.022567	 223.525000 	 
5.026002	 221.445000 	 
5.029437	 214.830000 	 
5.032872	 214.653000 	 
5.036307	 213.587000 	 
5.039743	 216.323000 	 
5.043178	 214.530000 	 
5.046613	 212.366000 	 
5.050048	 211.588000 	 
5.053483	 212.397000 	 
5.056918	 213.602000 	 
5.060353	 209.931000 	 
5.063788	 211.379000 	 
5.067223	 216.739000 	 
5.070659	 216.484000 	 
5.074094	 215.542000 	 
5.077529	 211.074000 	 
5.080964	 207.466000 	 
5.084399	 209.647000 	 
5.087834	 211.994000 	 
5.091269	 215.770000 	 
5.094704	 215.126000 	 
5.098139	 217.874000 	 
5.101574	 214.936000 	 
5.105010	 213.879000 	 
5.108445	 211.110000 	 
5.111880	 214.959000 	 
5.115315	 223.577000 	 
5.118750	 227.963000 	 
5.122185	 235.974000 	 
5.125620	 243.173000 	 
5.129055	 255.872000 	 
