1.010345	 210.023000 	 
1.013780	 212.505000 	 
1.017215	 223.917000 	 
1.020650	 223.186000 	 
1.024086	 223.231000 	 
1.027521	 230.632000 	 
1.030956	 231.830000 	 
1.034391	 228.166000 	 
1.037826	 225.568000 	 
1.041261	 227.423000 	 
1.044696	 227.960000 	 
1.048132	 227.041000 	 
1.051567	 222.696000 	 
1.055002	 219.131000 	 
1.058437	 217.113000 	 
1.061872	 219.837000 	 
1.065307	 221.841000 	 
1.068742	 230.074000 	 
1.072177	 236.234000 	 
1.075612	 232.129000 	 
1.079048	 226.303000 	 
1.082483	 235.933000 	 
1.085918	 231.047000 	 
1.089353	 219.394000 	 
1.092788	 219.601000 	 
1.096223	 232.202000 	 
1.099658	 228.690000 	 
1.103093	 227.862000 	 
1.106529	 229.502000 	 
1.109964	 227.045000 	 
1.113399	 228.438000 	 
1.116834	 222.967000 	 
1.120269	 217.538000 	 
1.123704	 224.698000 	 
1.127139	 217.745000 	 
1.130574	 216.255000 	 
1.134009	 218.680000 	 
1.137445	 221.113000 	 
1.140880	 222.560000 	 
1.144315	 218.896000 	 
1.147750	 220.607000 	 
1.151185	 216.223000 	 
1.154620	 212.013000 	 
1.158055	 216.317000 	 
1.161490	 213.570000 	 
1.164926	 216.883000 	 
1.168361	 219.732000 	 
1.171796	 226.605000 	 
1.175231	 232.629000 	 
1.178666	 230.948000 	 
1.182101	 231.014000 	 
1.185536	 233.670000 	 
1.188971	 219.306000 	 
1.192406	 212.127000 	 
1.195842	 213.259000 	 
1.199277	 216.749000 	 
1.202712	 221.044000 	 
1.206147	 233.190000 	 
1.209582	 229.357000 	 
1.213017	 222.615000 	 
1.216452	 217.875000 	 
1.219888	 210.187000 	 
1.223323	 207.652000 	 
1.226758	 209.346000 	 
1.230193	 217.447000 	 
1.233628	 233.889000 	 
1.237063	 231.167000 	 
1.240498	 231.455000 	 
1.243933	 218.637000 	 
1.247369	 215.794000 	 
1.250804	 219.725000 	 
1.254239	 228.155000 	 
1.257674	 230.498000 	 
1.261109	 228.249000 	 
1.264544	 223.958000 	 
1.267979	 223.488000 	 
1.271414	 224.808000 	 
1.274849	 218.806000 	 
1.278285	 209.748000 	 
1.281720	 213.476000 	 
1.285155	 219.863000 	 
1.288590	 223.543000 	 
1.292025	 224.477000 	 
1.295460	 218.279000 	 
1.298895	 221.927000 	 
1.302330	 216.014000 	 
1.305765	 214.344000 	 
1.309201	 211.330000 	 
1.312636	 212.601000 	 
1.316071	 216.384000 	 
1.319506	 213.766000 	 
1.322941	 224.358000 	 
1.326376	 223.293000 	 
1.329811	 224.771000 	 
1.333247	 227.326000 	 
1.336682	 219.150000 	 
1.340117	 217.634000 	 
1.343552	 223.027000 	 
1.346987	 218.189000 	 
1.350422	 212.562000 	 
1.353857	 210.812000 	 
1.357292	 214.942000 	 
1.360727	 220.692000 	 
1.364163	 217.572000 	 
1.367598	 217.581000 	 
1.371033	 228.048000 	 
1.374468	 228.020000 	 
1.377903	 223.673000 	 
1.381338	 223.207000 	 
1.384773	 219.083000 	 
1.388208	 221.039000 	 
1.391644	 221.389000 	 
1.395079	 217.582000 	 
1.398514	 222.671000 	 
1.401949	 222.796000 	 
1.405384	 219.226000 	 
1.408819	 224.904000 	 
1.412254	 231.793000 	 
1.415689	 232.768000 	 
1.419124	 225.530000 	 
1.422560	 219.103000 	 
1.425995	 215.135000 	 
1.429430	 217.498000 	 
1.432865	 220.422000 	 
1.436300	 216.925000 	 
1.439735	 219.515000 	 
1.443170	 217.627000 	 
1.446605	 213.060000 	 
1.450041	 210.728000 	 
1.453476	 208.778000 	 
1.456911	 209.299000 	 
1.460346	 210.595000 	 
1.463781	 209.901000 	 
1.467216	 216.440000 	 
1.470651	 219.596000 	 
1.474087	 217.904000 	 
1.477521	 211.258000 	 
1.480957	 212.574000 	 
1.484392	 219.079000 	 
1.487827	 221.239000 	 
1.491262	 218.312000 	 
1.494697	 213.231000 	 
1.498132	 213.031000 	 
1.501567	 215.555000 	 
1.505003	 216.264000 	 
1.508438	 217.375000 	 
1.511873	 218.376000 	 
1.515308	 220.492000 	 
1.518743	 221.940000 	 
1.522178	 223.094000 	 
1.525613	 223.927000 	 
1.529048	 224.718000 	 
1.532484	 221.720000 	 
1.535919	 220.986000 	 
1.539354	 217.539000 	 
1.542789	 223.847000 	 
1.546224	 233.144000 	 
1.549659	 230.770000 	 
1.553094	 231.650000 	 
1.556529	 226.696000 	 
1.559965	 229.782000 	 
1.563400	 230.296000 	 
1.566835	 226.765000 	 
1.570270	 223.708000 	 
1.573705	 233.492000 	 
1.577140	 240.968000 	 
1.580575	 238.923000 	 
1.584010	 235.700000 	 
1.587446	 235.715000 	 
1.590881	 243.186000 	 
1.594316	 250.509000 	 
1.597751	 254.663000 	 
1.601186	 266.186000 	 
1.604621	 300.695000 	 
1.608056	 357.040000 	 
1.611491	 520.596000 	 
1.614926	 817.759000 	 
1.618362	 1193.510000 	 
1.621797	 1543.550000 	 
1.625232	 1541.090000 	 
1.628667	 1309.780000 	 
1.632102	 901.368000 	 
1.635537	 656.898000 	 
1.638972	 506.740000 	 
1.642407	 438.166000 	 
1.645843	 423.645000 	 
1.649278	 427.212000 	 
1.652713	 458.234000 	 
1.656148	 582.410000 	 
1.659583	 808.034000 	 
1.663018	 1139.790000 	 
1.666453	 1329.720000 	 
1.669888	 1284.230000 	 
1.673324	 994.593000 	 
1.676759	 635.016000 	 
1.680194	 423.895000 	 
1.683629	 309.981000 	 
1.687064	 272.622000 	 
1.690499	 252.346000 	 
1.693934	 236.310000 	 
1.697369	 230.014000 	 
1.700805	 233.107000 	 
1.704240	 234.190000 	 
1.707675	 231.298000 	 
1.711110	 229.585000 	 
1.714545	 231.393000 	 
1.717980	 232.106000 	 
1.721415	 232.344000 	 
1.724850	 232.264000 	 
1.728285	 239.729000 	 
1.731721	 236.448000 	 
1.735156	 227.023000 	 
1.738591	 215.909000 	 
1.742026	 217.213000 	 
1.745461	 220.409000 	 
1.748896	 222.832000 	 
1.752331	 224.439000 	 
1.755766	 228.416000 	 
1.759202	 227.290000 	 
1.762637	 225.326000 	 
1.766072	 212.654000 	 
1.769507	 205.489000 	 
1.772942	 212.294000 	 
1.776377	 210.520000 	 
1.779812	 208.386000 	 
1.783247	 208.382000 	 
1.786683	 208.788000 	 
1.790118	 209.281000 	 
1.793553	 209.438000 	 
1.796988	 210.495000 	 
1.800423	 211.540000 	 
1.803858	 210.044000 	 
1.807293	 213.511000 	 
1.810728	 217.916000 	 
1.814163	 219.650000 	 
1.817599	 221.709000 	 
1.821034	 220.080000 	 
1.824469	 219.769000 	 
1.827904	 214.977000 	 
1.831339	 217.845000 	 
1.834774	 226.665000 	 
1.838209	 217.967000 	 
1.841644	 212.265000 	 
1.845080	 216.400000 	 
1.848515	 219.556000 	 
1.851950	 218.204000 	 
1.855385	 221.152000 	 
1.858820	 215.803000 	 
1.862255	 221.195000 	 
1.865690	 226.510000 	 
1.869125	 225.326000 	 
1.872561	 224.044000 	 
1.875996	 224.141000 	 
1.879431	 222.912000 	 
1.882866	 220.660000 	 
1.886301	 216.781000 	 
1.889736	 212.929000 	 
1.893171	 220.938000 	 
1.896606	 222.494000 	 
1.900041	 226.450000 	 
1.903477	 224.867000 	 
1.906912	 218.106000 	 
1.910347	 209.296000 	 
1.913782	 213.227000 	 
1.917217	 212.657000 	 
1.920652	 213.465000 	 
1.924087	 218.612000 	 
1.927523	 222.117000 	 
1.930958	 223.231000 	 
1.934393	 223.471000 	 
1.937828	 221.597000 	 
1.941263	 217.710000 	 
1.944698	 216.290000 	 
1.948133	 213.008000 	 
1.951568	 211.079000 	 
1.955003	 216.351000 	 
1.958439	 221.201000 	 
1.961874	 214.929000 	 
1.965309	 210.534000 	 
1.968744	 213.527000 	 
1.972179	 212.310000 	 
1.975614	 212.516000 	 
1.979049	 216.136000 	 
1.982485	 215.516000 	 
1.985920	 217.314000 	 
1.989355	 220.028000 	 
1.992790	 220.305000 	 
1.996225	 220.880000 	 
1.999660	 221.621000 	 
2.003095	 217.295000 	 
2.006530	 219.494000 	 
2.009965	 220.020000 	 
2.013401	 218.971000 	 
2.016836	 219.565000 	 
2.020271	 212.585000 	 
2.023706	 210.521000 	 
2.027141	 212.222000 	 
2.030576	 212.972000 	 
2.034011	 216.318000 	 
2.037446	 218.400000 	 
2.040881	 222.275000 	 
2.044316	 219.861000 	 
2.047752	 214.947000 	 
2.051187	 210.839000 	 
2.054622	 210.604000 	 
2.058057	 213.926000 	 
2.061492	 218.073000 	 
2.064927	 214.688000 	 
2.068363	 217.434000 	 
2.071798	 226.662000 	 
2.075233	 226.894000 	 
2.078668	 224.469000 	 
2.082103	 224.097000 	 
2.085538	 224.426000 	 
2.088973	 229.558000 	 
2.092408	 233.236000 	 
2.095843	 226.563000 	 
2.099279	 224.566000 	 
2.102714	 222.398000 	 
2.106149	 221.385000 	 
2.109584	 220.746000 	 
2.113019	 218.699000 	 
2.116454	 225.309000 	 
2.119889	 233.444000 	 
2.123324	 241.916000 	 
2.126759	 241.846000 	 
2.130195	 233.697000 	 
2.133630	 226.915000 	 
2.137065	 224.795000 	 
2.140500	 225.251000 	 
2.143935	 228.501000 	 
2.147370	 227.684000 	 
2.150806	 228.189000 	 
2.154241	 226.842000 	 
2.157675	 222.783000 	 
2.161111	 221.675000 	 
2.164546	 221.865000 	 
2.167981	 222.401000 	 
2.171416	 226.319000 	 
2.174851	 229.180000 	 
2.178286	 232.614000 	 
2.181721	 234.898000 	 
2.185157	 233.715000 	 
2.188592	 231.058000 	 
2.192027	 230.214000 	 
2.195462	 223.611000 	 
2.198897	 226.669000 	 
2.202332	 232.056000 	 
2.205767	 232.087000 	 
2.209203	 237.800000 	 
2.212638	 242.182000 	 
2.216073	 237.887000 	 
2.219508	 232.504000 	 
2.222943	 237.221000 	 
2.226378	 244.158000 	 
2.229813	 245.120000 	 
2.233248	 247.135000 	 
2.236683	 244.216000 	 
2.240118	 240.913000 	 
2.243554	 242.158000 	 
2.246989	 242.411000 	 
2.250424	 249.628000 	 
2.253859	 252.842000 	 
2.257294	 256.241000 	 
2.260729	 269.996000 	 
2.264164	 279.740000 	 
2.267600	 274.956000 	 
2.271035	 277.400000 	 
2.274470	 284.956000 	 
2.277905	 292.968000 	 
2.281340	 302.574000 	 
2.284775	 311.241000 	 
2.288210	 316.906000 	 
2.291645	 339.580000 	 
2.295080	 362.964000 	 
2.298516	 385.343000 	 
2.301951	 435.861000 	 
2.305386	 540.889000 	 
2.308821	 790.176000 	 
2.312256	 1503.690000 	 
2.315691	 3032.720000 	 
2.319126	 5464.280000 	 
2.322561	 8278.630000 	 
2.325997	 9246.460000 	 
2.329432	 8431.080000 	 
2.332867	 5919.070000 	 
2.336302	 3759.880000 	 
2.339737	 2350.580000 	 
2.343172	 1735.110000 	 
2.346607	 1729.950000 	 
2.350042	 2072.120000 	 
2.353477	 2672.700000 	 
2.356913	 3107.290000 	 
2.360348	 2996.690000 	 
2.363783	 2336.120000 	 
2.367218	 1462.500000 	 
2.370653	 883.587000 	 
2.374088	 567.002000 	 
2.377523	 438.085000 	 
2.380959	 375.219000 	 
2.384394	 335.517000 	 
2.387829	 311.789000 	 
2.391264	 301.643000 	 
2.394699	 288.316000 	 
2.398134	 279.678000 	 
2.401569	 275.638000 	 
2.405004	 275.136000 	 
2.408439	 276.948000 	 
2.411875	 273.178000 	 
2.415310	 265.867000 	 
2.418745	 261.740000 	 
2.422180	 260.250000 	 
2.425615	 252.928000 	 
2.429050	 243.781000 	 
2.432485	 239.930000 	 
2.435920	 235.404000 	 
2.439356	 231.906000 	 
2.442791	 230.418000 	 
2.446226	 231.738000 	 
2.449661	 233.004000 	 
2.453096	 230.474000 	 
2.456531	 225.182000 	 
2.459966	 223.037000 	 
2.463401	 223.784000 	 
2.466836	 226.904000 	 
2.470272	 230.685000 	 
2.473707	 232.790000 	 
2.477142	 234.408000 	 
2.480577	 238.882000 	 
2.484012	 235.658000 	 
2.487447	 230.232000 	 
2.490882	 228.980000 	 
2.494318	 221.007000 	 
2.497753	 220.148000 	 
2.501188	 217.012000 	 
2.504623	 217.771000 	 
2.508058	 218.968000 	 
2.511493	 217.541000 	 
2.514928	 219.061000 	 
2.518363	 221.029000 	 
2.521798	 221.376000 	 
2.525234	 216.925000 	 
2.528669	 214.139000 	 
2.532104	 214.636000 	 
2.535539	 218.562000 	 
2.538974	 219.962000 	 
2.542409	 213.348000 	 
2.545844	 214.455000 	 
2.549279	 218.894000 	 
2.552715	 217.165000 	 
2.556150	 209.567000 	 
2.559585	 205.559000 	 
2.563020	 207.390000 	 
2.566455	 210.724000 	 
2.569890	 211.878000 	 
2.573325	 214.715000 	 
2.576760	 214.122000 	 
2.580195	 213.597000 	 
2.583631	 214.167000 	 
2.587066	 213.110000 	 
2.590501	 216.689000 	 
2.593936	 216.424000 	 
2.597371	 214.724000 	 
2.600806	 217.029000 	 
2.604241	 216.169000 	 
2.607677	 217.279000 	 
2.611112	 220.395000 	 
2.614547	 220.373000 	 
2.617982	 214.395000 	 
2.621417	 211.867000 	 
2.624852	 210.515000 	 
2.628287	 208.517000 	 
2.631723	 207.474000 	 
2.635158	 211.456000 	 
2.638593	 212.374000 	 
2.642028	 218.035000 	 
2.645463	 222.122000 	 
2.648898	 214.480000 	 
2.652333	 212.114000 	 
2.655768	 208.562000 	 
2.659203	 202.823000 	 
2.662638	 201.514000 	 
2.666074	 204.487000 	 
2.669509	 205.939000 	 
2.672944	 208.259000 	 
2.676379	 207.730000 	 
2.679814	 210.734000 	 
2.683249	 210.371000 	 
2.686684	 208.046000 	 
2.690120	 205.755000 	 
2.693555	 206.020000 	 
2.696990	 205.101000 	 
2.700425	 202.802000 	 
2.703860	 198.519000 	 
2.707295	 199.512000 	 
2.710730	 202.912000 	 
2.714165	 204.032000 	 
2.717600	 203.482000 	 
2.721036	 201.880000 	 
2.724471	 199.802000 	 
2.727906	 205.531000 	 
2.731341	 209.829000 	 
2.734776	 213.269000 	 
2.738211	 209.568000 	 
2.741646	 202.565000 	 
2.745081	 205.874000 	 
2.748517	 210.088000 	 
2.751952	 213.909000 	 
2.755387	 213.022000 	 
2.758822	 212.286000 	 
2.762257	 210.509000 	 
2.765692	 207.826000 	 
2.769127	 209.872000 	 
2.772562	 208.966000 	 
2.775997	 201.548000 	 
2.779433	 199.487000 	 
2.782868	 203.360000 	 
2.786303	 211.824000 	 
2.789738	 213.284000 	 
2.793173	 213.089000 	 
2.796608	 211.361000 	 
2.800043	 216.436000 	 
2.803479	 221.443000 	 
2.806914	 223.318000 	 
2.810349	 221.503000 	 
2.813784	 221.358000 	 
2.817219	 220.012000 	 
2.820654	 225.723000 	 
2.824089	 235.244000 	 
2.827524	 237.318000 	 
2.830959	 239.593000 	 
2.834395	 249.242000 	 
2.837830	 268.006000 	 
2.841265	 310.765000 	 
2.844700	 405.419000 	 
2.848135	 601.412000 	 
2.851570	 961.764000 	 
2.855005	 1522.870000 	 
2.858440	 2007.750000 	 
2.861876	 2252.820000 	 
2.865311	 1907.170000 	 
2.868746	 1356.980000 	 
2.872181	 818.841000 	 
2.875616	 507.681000 	 
2.879051	 356.265000 	 
2.882486	 286.638000 	 
2.885921	 253.645000 	 
2.889356	 239.423000 	 
2.892792	 226.266000 	 
2.896227	 218.855000 	 
2.899662	 217.330000 	 
2.903097	 216.564000 	 
2.906532	 212.116000 	 
2.909967	 217.684000 	 
2.913402	 217.023000 	 
2.916838	 213.942000 	 
2.920273	 219.433000 	 
2.923708	 219.793000 	 
2.927143	 219.426000 	 
2.930578	 216.448000 	 
2.934013	 220.119000 	 
2.937448	 221.311000 	 
2.940883	 220.019000 	 
2.944318	 216.011000 	 
2.947753	 212.852000 	 
2.951189	 214.968000 	 
2.954624	 213.254000 	 
2.958059	 211.040000 	 
2.961494	 209.074000 	 
2.964929	 212.533000 	 
2.968364	 214.142000 	 
2.971799	 207.373000 	 
2.975235	 202.888000 	 
2.978670	 200.888000 	 
2.982105	 205.304000 	 
2.985540	 210.540000 	 
2.988975	 213.845000 	 
2.992410	 210.735000 	 
2.995845	 204.875000 	 
2.999280	 200.804000 	 
3.002715	 200.700000 	 
3.006150	 203.219000 	 
3.009586	 205.836000 	 
3.013021	 205.722000 	 
3.016456	 211.612000 	 
3.019891	 208.950000 	 
3.023326	 204.662000 	 
3.026761	 204.055000 	 
3.030196	 201.179000 	 
3.033632	 202.206000 	 
3.037067	 204.446000 	 
3.040502	 205.496000 	 
3.043937	 203.210000 	 
3.047372	 202.899000 	 
3.050807	 202.766000 	 
3.054242	 202.502000 	 
3.057678	 204.570000 	 
3.061113	 206.728000 	 
3.064548	 204.393000 	 
3.067983	 204.581000 	 
3.071418	 199.872000 	 
3.074853	 197.017000 	 
3.078288	 195.958000 	 
3.081723	 196.752000 	 
3.085158	 196.516000 	 
3.088594	 201.859000 	 
3.092029	 205.219000 	 
3.095464	 208.096000 	 
3.098899	 210.365000 	 
3.102334	 215.834000 	 
3.105769	 213.825000 	 
3.109204	 214.273000 	 
3.112639	 214.600000 	 
3.116075	 212.122000 	 
3.119510	 208.669000 	 
3.122945	 199.903000 	 
3.126380	 203.344000 	 
3.129815	 209.325000 	 
3.133250	 212.336000 	 
3.136685	 205.558000 	 
3.140120	 198.473000 	 
3.143555	 200.860000 	 
3.146990	 202.080000 	 
3.150426	 206.931000 	 
3.153861	 209.166000 	 
3.157296	 210.310000 	 
3.160731	 208.337000 	 
3.164166	 207.421000 	 
3.167601	 210.752000 	 
3.171037	 216.521000 	 
3.174472	 215.653000 	 
3.177907	 221.034000 	 
3.181342	 223.015000 	 
3.184777	 220.627000 	 
3.188212	 220.211000 	 
3.191647	 218.758000 	 
3.195082	 218.285000 	 
3.198517	 222.803000 	 
3.201953	 220.207000 	 
3.205388	 220.751000 	 
3.208823	 220.926000 	 
3.212258	 221.411000 	 
3.215693	 228.642000 	 
3.219128	 231.711000 	 
3.222563	 236.024000 	 
3.225998	 250.568000 	 
3.229433	 286.733000 	 
3.232869	 381.998000 	 
3.236304	 549.144000 	 
3.239739	 799.460000 	 
3.243174	 1090.490000 	 
3.246609	 1213.610000 	 
3.250044	 1169.450000 	 
3.253479	 959.133000 	 
3.256914	 755.338000 	 
3.260349	 582.113000 	 
3.263785	 470.114000 	 
3.267220	 405.579000 	 
3.270655	 359.662000 	 
3.274090	 329.536000 	 
3.277525	 305.237000 	 
3.280960	 286.599000 	 
3.284396	 283.984000 	 
3.287831	 282.313000 	 
3.291266	 282.158000 	 
3.294701	 285.137000 	 
3.298136	 287.529000 	 
3.301571	 288.858000 	 
3.305006	 289.985000 	 
3.308441	 300.617000 	 
3.311876	 317.100000 	 
3.315311	 350.484000 	 
3.318747	 411.346000 	 
3.322182	 518.214000 	 
3.325617	 707.201000 	 
3.329052	 1033.340000 	 
3.332487	 1384.370000 	 
3.335922	 1632.860000 	 
3.339357	 1601.430000 	 
3.342792	 1274.740000 	 
3.346228	 894.898000 	 
3.349663	 583.815000 	 
3.353098	 403.331000 	 
3.356533	 310.744000 	 
3.359968	 271.396000 	 
3.363403	 255.117000 	 
3.366838	 244.131000 	 
3.370273	 233.911000 	 
3.373709	 231.834000 	 
3.377144	 235.301000 	 
3.380579	 238.347000 	 
3.384014	 229.957000 	 
3.387449	 226.918000 	 
3.390884	 225.862000 	 
3.394319	 227.386000 	 
3.397754	 228.915000 	 
3.401190	 229.501000 	 
3.404625	 226.657000 	 
3.408060	 221.962000 	 
3.411495	 219.291000 	 
3.414930	 211.058000 	 
3.418365	 213.847000 	 
3.421800	 216.784000 	 
3.425235	 218.518000 	 
3.428670	 211.881000 	 
3.432106	 210.315000 	 
3.435541	 214.958000 	 
3.438976	 215.570000 	 
3.442411	 214.175000 	 
3.445846	 213.215000 	 
3.449281	 209.055000 	 
3.452716	 211.404000 	 
3.456151	 210.617000 	 
3.459587	 212.902000 	 
3.463022	 212.956000 	 
3.466457	 212.318000 	 
3.469892	 209.078000 	 
3.473327	 213.469000 	 
3.476762	 214.455000 	 
3.480197	 216.201000 	 
3.483633	 217.649000 	 
3.487068	 213.828000 	 
3.490503	 209.573000 	 
3.493938	 211.718000 	 
3.497373	 214.482000 	 
3.500808	 213.747000 	 
3.504243	 218.301000 	 
3.507678	 221.992000 	 
3.511113	 221.692000 	 
3.514549	 219.445000 	 
3.517984	 214.136000 	 
3.521419	 210.103000 	 
3.524854	 214.770000 	 
3.528289	 216.785000 	 
3.531724	 217.418000 	 
3.535159	 216.905000 	 
3.538594	 215.034000 	 
3.542030	 213.901000 	 
3.545465	 214.876000 	 
3.548900	 211.717000 	 
3.552335	 209.305000 	 
3.555770	 216.091000 	 
3.559205	 214.793000 	 
3.562640	 211.551000 	 
3.566075	 210.671000 	 
3.569510	 211.506000 	 
3.572946	 213.493000 	 
3.576381	 210.529000 	 
3.579816	 214.319000 	 
3.583251	 218.551000 	 
3.586686	 217.901000 	 
3.590121	 216.905000 	 
3.593556	 219.248000 	 
3.596992	 221.871000 	 
3.600427	 218.139000 	 
3.603862	 223.216000 	 
3.607297	 224.613000 	 
3.610732	 223.716000 	 
3.614167	 225.925000 	 
3.617602	 229.565000 	 
3.621037	 241.917000 	 
3.624472	 250.235000 	 
3.627908	 262.780000 	 
3.631343	 285.885000 	 
3.634778	 360.882000 	 
3.638213	 494.837000 	 
3.641648	 686.180000 	 
3.645083	 882.239000 	 
3.648518	 968.862000 	 
3.651953	 936.411000 	 
3.655389	 785.842000 	 
3.658824	 632.307000 	 
3.662259	 502.888000 	 
3.665694	 408.816000 	 
3.669129	 359.773000 	 
3.672564	 328.275000 	 
3.675999	 309.860000 	 
3.679434	 302.475000 	 
3.682869	 297.612000 	 
3.686305	 305.519000 	 
3.689740	 325.281000 	 
3.693175	 347.208000 	 
3.696610	 380.843000 	 
3.700045	 439.382000 	 
3.703480	 510.791000 	 
3.706915	 572.062000 	 
3.710351	 592.793000 	 
3.713786	 568.267000 	 
3.717221	 516.568000 	 
3.720656	 472.215000 	 
3.724091	 473.455000 	 
3.727526	 484.590000 	 
3.730961	 478.395000 	 
3.734396	 440.126000 	 
3.737831	 377.510000 	 
3.741267	 309.050000 	 
3.744702	 273.122000 	 
3.748137	 255.736000 	 
3.751572	 244.090000 	 
3.755007	 237.678000 	 
3.758442	 229.488000 	 
3.761877	 224.776000 	 
3.765312	 227.065000 	 
3.768748	 230.274000 	 
3.772183	 232.682000 	 
3.775618	 232.977000 	 
3.779053	 222.430000 	 
3.782488	 221.097000 	 
3.785923	 226.278000 	 
3.789358	 227.259000 	 
3.792793	 225.769000 	 
3.796228	 221.580000 	 
3.799663	 220.223000 	 
3.803099	 220.364000 	 
3.806534	 220.157000 	 
3.809969	 220.057000 	 
3.813404	 215.591000 	 
3.816839	 212.749000 	 
3.820274	 213.795000 	 
3.823710	 214.545000 	 
3.827145	 217.986000 	 
3.830580	 221.447000 	 
3.834015	 220.710000 	 
3.837450	 222.360000 	 
3.840885	 221.558000 	 
3.844320	 217.148000 	 
3.847755	 220.444000 	 
3.851190	 218.551000 	 
3.854626	 221.659000 	 
3.858061	 222.216000 	 
3.861496	 221.573000 	 
3.864931	 221.827000 	 
3.868366	 223.675000 	 
3.871801	 224.443000 	 
3.875236	 219.793000 	 
3.878671	 215.839000 	 
3.882106	 218.294000 	 
3.885542	 220.642000 	 
3.888977	 221.217000 	 
3.892412	 222.793000 	 
3.895847	 225.538000 	 
3.899282	 227.849000 	 
3.902717	 227.668000 	 
3.906153	 228.878000 	 
3.909587	 228.005000 	 
3.913022	 226.270000 	 
3.916458	 222.501000 	 
3.919893	 224.386000 	 
3.923328	 225.055000 	 
3.926763	 227.347000 	 
3.930198	 231.326000 	 
3.933633	 227.831000 	 
3.937069	 229.300000 	 
3.940504	 236.510000 	 
3.943939	 235.931000 	 
3.947374	 238.912000 	 
3.950809	 236.684000 	 
3.954244	 229.959000 	 
3.957679	 235.127000 	 
3.961114	 242.221000 	 
3.964549	 248.204000 	 
3.967984	 248.427000 	 
3.971420	 248.961000 	 
3.974855	 253.319000 	 
3.978290	 264.760000 	 
3.981725	 279.922000 	 
3.985160	 294.511000 	 
3.988595	 318.566000 	 
3.992030	 382.927000 	 
3.995465	 504.408000 	 
3.998901	 719.008000 	 
4.002336	 1081.210000 	 
4.005771	 1471.050000 	 
4.009206	 1762.870000 	 
4.012641	 1823.780000 	 
4.016076	 1641.130000 	 
4.019511	 1349.690000 	 
4.022946	 1046.320000 	 
4.026382	 823.771000 	 
4.029817	 680.366000 	 
4.033252	 594.973000 	 
4.036687	 554.420000 	 
4.040122	 552.086000 	 
4.043557	 582.988000 	 
4.046992	 673.566000 	 
4.050427	 821.503000 	 
4.053863	 1064.240000 	 
4.057298	 1462.460000 	 
4.060733	 1903.730000 	 
4.064168	 2284.060000 	 
4.067603	 2446.610000 	 
4.071038	 2214.450000 	 
4.074473	 1752.070000 	 
4.077909	 1207.430000 	 
4.081344	 807.402000 	 
4.084779	 553.871000 	 
4.088214	 409.212000 	 
4.091649	 337.634000 	 
4.095084	 298.552000 	 
4.098519	 277.826000 	 
4.101954	 264.087000 	 
4.105390	 254.696000 	 
4.108825	 248.846000 	 
4.112260	 247.413000 	 
4.115695	 243.867000 	 
4.119130	 241.182000 	 
4.122565	 237.970000 	 
4.126000	 234.010000 	 
4.129435	 231.633000 	 
4.132870	 235.291000 	 
4.136305	 233.003000 	 
4.139741	 236.875000 	 
4.143176	 237.125000 	 
4.146611	 231.201000 	 
4.150046	 230.591000 	 
4.153481	 231.401000 	 
4.156916	 228.862000 	 
4.160351	 231.810000 	 
4.163786	 234.745000 	 
4.167222	 233.582000 	 
4.170657	 231.583000 	 
4.174092	 230.670000 	 
4.177527	 223.094000 	 
4.180962	 221.024000 	 
4.184397	 224.496000 	 
4.187832	 220.679000 	 
4.191268	 220.050000 	 
4.194703	 222.863000 	 
4.198138	 220.057000 	 
4.201573	 217.844000 	 
4.205008	 217.704000 	 
4.208443	 214.186000 	 
4.211878	 219.481000 	 
4.215313	 218.790000 	 
4.218749	 218.295000 	 
4.222184	 221.829000 	 
4.225619	 224.906000 	 
4.229054	 223.268000 	 
4.232489	 217.587000 	 
4.235924	 216.792000 	 
4.239359	 217.891000 	 
4.242794	 223.188000 	 
4.246229	 223.841000 	 
4.249664	 219.765000 	 
4.253099	 215.394000 	 
4.256535	 216.511000 	 
4.259970	 215.939000 	 
4.263405	 220.871000 	 
4.266840	 218.203000 	 
4.270275	 215.469000 	 
4.273710	 212.878000 	 
4.277145	 214.175000 	 
4.280581	 215.506000 	 
4.284016	 213.151000 	 
4.287451	 211.401000 	 
4.290886	 210.693000 	 
4.294321	 213.975000 	 
4.297756	 213.475000 	 
4.301191	 212.062000 	 
4.304627	 213.308000 	 
4.308062	 212.892000 	 
4.311497	 209.417000 	 
4.314932	 209.282000 	 
4.318367	 211.461000 	 
4.321802	 211.628000 	 
4.325237	 217.340000 	 
4.328672	 218.655000 	 
4.332108	 220.373000 	 
4.335543	 218.489000 	 
4.338978	 218.543000 	 
4.342413	 215.361000 	 
4.345848	 212.763000 	 
4.349283	 210.663000 	 
4.352718	 210.059000 	 
4.356153	 208.991000 	 
4.359589	 212.128000 	 
4.363023	 210.948000 	 
4.366458	 208.586000 	 
4.369894	 211.332000 	 
4.373329	 214.677000 	 
4.376764	 211.462000 	 
4.380199	 213.376000 	 
4.383634	 217.569000 	 
4.387069	 217.069000 	 
4.390504	 211.210000 	 
4.393940	 209.304000 	 
4.397375	 210.661000 	 
4.400810	 212.112000 	 
4.404245	 215.966000 	 
4.407680	 216.676000 	 
4.411115	 214.292000 	 
4.414550	 211.722000 	 
4.417985	 210.822000 	 
4.421421	 211.917000 	 
4.424856	 210.873000 	 
4.428291	 213.965000 	 
4.431726	 215.987000 	 
4.435161	 213.071000 	 
4.438596	 210.811000 	 
4.442031	 207.952000 	 
4.445467	 209.393000 	 
4.448902	 213.560000 	 
4.452337	 216.003000 	 
4.455772	 215.372000 	 
4.459207	 213.099000 	 
4.462642	 210.641000 	 
4.466077	 210.575000 	 
4.469513	 210.098000 	 
4.472948	 217.700000 	 
4.476383	 220.386000 	 
4.479818	 220.533000 	 
4.483252	 215.836000 	 
4.486688	 211.935000 	 
4.490123	 211.558000 	 
4.493558	 212.149000 	 
4.496993	 212.964000 	 
4.500428	 212.605000 	 
4.503863	 214.369000 	 
4.507299	 218.970000 	 
4.510734	 221.225000 	 
4.514169	 217.327000 	 
4.517604	 210.534000 	 
4.521039	 205.046000 	 
4.524474	 210.298000 	 
4.527909	 215.787000 	 
4.531344	 220.990000 	 
4.534780	 221.505000 	 
4.538215	 220.911000 	 
4.541650	 221.314000 	 
4.545085	 216.638000 	 
4.548520	 211.905000 	 
4.551955	 213.086000 	 
4.555390	 209.073000 	 
4.558826	 213.991000 	 
4.562261	 216.407000 	 
4.565696	 213.595000 	 
4.569131	 214.851000 	 
4.572566	 215.526000 	 
4.576001	 215.694000 	 
4.579436	 216.847000 	 
4.582871	 214.364000 	 
4.586307	 213.585000 	 
4.589742	 215.504000 	 
4.593177	 213.223000 	 
4.596612	 210.398000 	 
4.600047	 211.868000 	 
4.603482	 217.392000 	 
4.606917	 217.543000 	 
4.610352	 221.156000 	 
4.613787	 225.193000 	 
4.617222	 225.954000 	 
4.620657	 230.523000 	 
4.624093	 235.824000 	 
4.627528	 250.614000 	 
4.630963	 279.094000 	 
4.634398	 330.867000 	 
4.637833	 421.440000 	 
4.641268	 559.945000 	 
4.644703	 753.686000 	 
4.648139	 953.995000 	 
4.651574	 1089.420000 	 
4.655009	 1127.790000 	 
4.658444	 1032.970000 	 
4.661879	 874.849000 	 
4.665314	 687.401000 	 
4.668749	 543.142000 	 
4.672185	 442.705000 	 
4.675620	 370.030000 	 
4.679055	 320.604000 	 
4.682490	 296.187000 	 
4.685925	 281.429000 	 
4.689360	 272.220000 	 
4.692795	 276.500000 	 
4.696230	 284.257000 	 
4.699666	 295.590000 	 
4.703101	 312.926000 	 
4.706536	 352.756000 	 
4.709971	 418.855000 	 
4.713406	 494.671000 	 
4.716841	 554.468000 	 
4.720276	 572.527000 	 
4.723711	 527.432000 	 
4.727146	 451.843000 	 
4.730581	 376.688000 	 
4.734016	 317.566000 	 
4.737452	 277.128000 	 
4.740887	 249.995000 	 
4.744322	 232.976000 	 
4.747757	 225.287000 	 
4.751192	 221.563000 	 
4.754627	 222.858000 	 
4.758062	 225.408000 	 
4.761497	 225.064000 	 
4.764933	 225.404000 	 
4.768368	 224.648000 	 
4.771803	 222.293000 	 
4.775238	 217.874000 	 
4.778673	 217.242000 	 
4.782108	 215.085000 	 
4.785543	 215.703000 	 
4.788979	 217.596000 	 
4.792414	 216.066000 	 
4.795849	 216.141000 	 
4.799284	 215.065000 	 
4.802719	 213.193000 	 
4.806154	 214.566000 	 
4.809589	 217.075000 	 
4.813025	 215.802000 	 
4.816460	 219.885000 	 
4.819895	 225.096000 	 
4.823330	 222.304000 	 
4.826765	 214.326000 	 
4.830200	 209.194000 	 
4.833635	 210.775000 	 
4.837071	 215.983000 	 
4.840506	 217.797000 	 
4.843940	 223.049000 	 
4.847375	 224.149000 	 
4.850810	 223.877000 	 
4.854246	 227.025000 	 
4.857681	 235.598000 	 
4.861116	 249.670000 	 
4.864551	 274.119000 	 
4.867986	 298.380000 	 
4.871421	 312.828000 	 
4.874856	 310.063000 	 
4.878292	 294.731000 	 
4.881727	 275.576000 	 
4.885162	 258.626000 	 
4.888597	 245.984000 	 
4.892032	 238.410000 	 
4.895467	 235.048000 	 
4.898902	 231.216000 	 
4.902338	 228.655000 	 
4.905773	 226.325000 	 
4.909208	 228.953000 	 
4.912643	 235.886000 	 
4.916078	 241.311000 	 
4.919513	 252.464000 	 
4.922948	 279.933000 	 
4.926384	 321.675000 	 
4.929819	 384.964000 	 
4.933254	 465.704000 	 
4.936689	 548.753000 	 
4.940124	 601.974000 	 
4.943559	 606.795000 	 
4.946994	 570.705000 	 
4.950429	 499.009000 	 
4.953865	 430.150000 	 
4.957300	 367.676000 	 
4.960735	 313.024000 	 
4.964169	 286.852000 	 
4.967605	 277.154000 	 
4.971040	 273.069000 	 
4.974475	 277.716000 	 
4.977910	 286.702000 	 
4.981345	 297.306000 	 
4.984780	 305.951000 	 
4.988215	 312.864000 	 
4.991651	 311.367000 	 
4.995086	 300.263000 	 
4.998521	 288.041000 	 
5.001956	 275.250000 	 
5.005391	 263.657000 	 
5.008826	 255.679000 	 
5.012261	 250.147000 	 
5.015696	 244.185000 	 
5.019132	 232.174000 	 
5.022567	 225.521000 	 
5.026002	 224.499000 	 
5.029437	 217.392000 	 
5.032872	 214.714000 	 
5.036307	 216.470000 	 
5.039743	 215.265000 	 
5.043178	 211.591000 	 
5.046613	 211.503000 	 
5.050048	 211.684000 	 
5.053483	 212.498000 	 
5.056918	 213.160000 	 
5.060353	 215.204000 	 
5.063788	 217.036000 	 
5.067223	 216.077000 	 
5.070659	 216.225000 	 
5.074094	 215.905000 	 
5.077529	 215.190000 	 
5.080964	 212.753000 	 
5.084399	 213.271000 	 
5.087834	 212.085000 	 
5.091269	 213.475000 	 
5.094704	 212.895000 	 
5.098139	 210.490000 	 
5.101574	 214.576000 	 
5.105010	 219.908000 	 
5.108445	 222.876000 	 
5.111880	 226.307000 	 
5.115315	 228.517000 	 
5.118750	 234.325000 	 
5.122185	 239.595000 	 
5.125620	 243.095000 	 
5.129055	 254.981000 	 
