1.010345	 212.158000 	 
1.013780	 222.276000 	 
1.017215	 229.016000 	 
1.020650	 229.822000 	 
1.024086	 219.930000 	 
1.027521	 221.125000 	 
1.030956	 232.021000 	 
1.034391	 237.372000 	 
1.037826	 231.970000 	 
1.041261	 227.009000 	 
1.044696	 225.784000 	 
1.048132	 228.461000 	 
1.051567	 223.607000 	 
1.055002	 221.592000 	 
1.058437	 221.647000 	 
1.061872	 227.712000 	 
1.065307	 228.774000 	 
1.068742	 226.049000 	 
1.072177	 223.208000 	 
1.075612	 220.246000 	 
1.079048	 219.462000 	 
1.082483	 218.110000 	 
1.085918	 223.721000 	 
1.089353	 219.207000 	 
1.092788	 216.226000 	 
1.096223	 218.453000 	 
1.099658	 210.859000 	 
1.103093	 212.874000 	 
1.106529	 221.236000 	 
1.109964	 220.782000 	 
1.113399	 219.150000 	 
1.116834	 224.727000 	 
1.120269	 227.432000 	 
1.123704	 225.797000 	 
1.127139	 224.488000 	 
1.130574	 227.622000 	 
1.134009	 228.993000 	 
1.137445	 220.937000 	 
1.140880	 217.742000 	 
1.144315	 215.106000 	 
1.147750	 227.131000 	 
1.151185	 226.762000 	 
1.154620	 224.155000 	 
1.158055	 223.418000 	 
1.161490	 223.560000 	 
1.164926	 220.102000 	 
1.168361	 217.401000 	 
1.171796	 217.706000 	 
1.175231	 214.915000 	 
1.178666	 211.481000 	 
1.182101	 214.579000 	 
1.185536	 219.586000 	 
1.188971	 219.942000 	 
1.192406	 219.470000 	 
1.195842	 220.633000 	 
1.199277	 213.505000 	 
1.202712	 216.920000 	 
1.206147	 222.859000 	 
1.209582	 233.565000 	 
1.213017	 224.901000 	 
1.216452	 220.318000 	 
1.219888	 220.401000 	 
1.223323	 218.302000 	 
1.226758	 216.027000 	 
1.230193	 215.376000 	 
1.233628	 217.995000 	 
1.237063	 219.258000 	 
1.240498	 219.597000 	 
1.243933	 219.085000 	 
1.247369	 216.075000 	 
1.250804	 219.081000 	 
1.254239	 225.413000 	 
1.257674	 230.781000 	 
1.261109	 226.853000 	 
1.264544	 216.149000 	 
1.267979	 215.806000 	 
1.271414	 218.384000 	 
1.274849	 212.710000 	 
1.278285	 216.187000 	 
1.281720	 221.606000 	 
1.285155	 223.943000 	 
1.288590	 227.659000 	 
1.292025	 224.477000 	 
1.295460	 217.675000 	 
1.298895	 213.476000 	 
1.302330	 216.301000 	 
1.305765	 219.500000 	 
1.309201	 220.723000 	 
1.312636	 222.042000 	 
1.316071	 222.106000 	 
1.319506	 220.384000 	 
1.322941	 215.639000 	 
1.326376	 215.031000 	 
1.329811	 218.282000 	 
1.333247	 218.307000 	 
1.336682	 220.688000 	 
1.340117	 223.416000 	 
1.343552	 218.855000 	 
1.346987	 217.611000 	 
1.350422	 217.275000 	 
1.353857	 220.303000 	 
1.357292	 224.727000 	 
1.360727	 229.260000 	 
1.364163	 231.086000 	 
1.367598	 227.779000 	 
1.371033	 232.498000 	 
1.374468	 232.345000 	 
1.377903	 226.718000 	 
1.381338	 224.443000 	 
1.384773	 224.721000 	 
1.388208	 218.537000 	 
1.391644	 216.209000 	 
1.395079	 215.773000 	 
1.398514	 216.938000 	 
1.401949	 224.738000 	 
1.405384	 231.485000 	 
1.408819	 230.817000 	 
1.412254	 216.943000 	 
1.415689	 214.004000 	 
1.419124	 214.943000 	 
1.422560	 219.874000 	 
1.425995	 219.716000 	 
1.429430	 213.289000 	 
1.432865	 211.893000 	 
1.436300	 210.443000 	 
1.439735	 212.153000 	 
1.443170	 217.127000 	 
1.446605	 220.207000 	 
1.450041	 219.204000 	 
1.453476	 215.613000 	 
1.456911	 213.322000 	 
1.460346	 222.872000 	 
1.463781	 222.018000 	 
1.467216	 227.069000 	 
1.470651	 222.073000 	 
1.474087	 221.391000 	 
1.477521	 225.429000 	 
1.480957	 225.910000 	 
1.484392	 213.652000 	 
1.487827	 218.043000 	 
1.491262	 227.349000 	 
1.494697	 224.429000 	 
1.498132	 216.104000 	 
1.501567	 214.670000 	 
1.505003	 217.747000 	 
1.508438	 222.783000 	 
1.511873	 226.239000 	 
1.515308	 229.750000 	 
1.518743	 234.527000 	 
1.522178	 232.100000 	 
1.525613	 224.590000 	 
1.529048	 222.924000 	 
1.532484	 224.388000 	 
1.535919	 220.889000 	 
1.539354	 212.860000 	 
1.542789	 204.991000 	 
1.546224	 212.980000 	 
1.549659	 217.315000 	 
1.553094	 213.373000 	 
1.556529	 219.541000 	 
1.559965	 230.067000 	 
1.563400	 232.434000 	 
1.566835	 235.421000 	 
1.570270	 233.636000 	 
1.573705	 235.134000 	 
1.577140	 240.705000 	 
1.580575	 236.680000 	 
1.584010	 236.262000 	 
1.587446	 239.767000 	 
1.590881	 242.941000 	 
1.594316	 246.018000 	 
1.597751	 255.326000 	 
1.601186	 274.270000 	 
1.604621	 301.234000 	 
1.608056	 350.619000 	 
1.611491	 486.182000 	 
1.614926	 735.780000 	 
1.618362	 1035.130000 	 
1.621797	 1284.080000 	 
1.625232	 1257.320000 	 
1.628667	 1072.870000 	 
1.632102	 759.992000 	 
1.635537	 580.940000 	 
1.638972	 470.444000 	 
1.642407	 416.259000 	 
1.645843	 404.212000 	 
1.649278	 415.843000 	 
1.652713	 474.859000 	 
1.656148	 620.129000 	 
1.659583	 893.525000 	 
1.663018	 1293.450000 	 
1.666453	 1518.270000 	 
1.669888	 1478.580000 	 
1.673324	 1113.830000 	 
1.676759	 675.834000 	 
1.680194	 435.006000 	 
1.683629	 318.937000 	 
1.687064	 277.800000 	 
1.690499	 263.735000 	 
1.693934	 250.397000 	 
1.697369	 246.036000 	 
1.700805	 243.873000 	 
1.704240	 237.730000 	 
1.707675	 235.208000 	 
1.711110	 234.447000 	 
1.714545	 235.229000 	 
1.717980	 231.405000 	 
1.721415	 231.517000 	 
1.724850	 232.034000 	 
1.728285	 233.581000 	 
1.731721	 235.065000 	 
1.735156	 230.431000 	 
1.738591	 228.236000 	 
1.742026	 229.238000 	 
1.745461	 225.970000 	 
1.748896	 227.148000 	 
1.752331	 229.860000 	 
1.755766	 226.420000 	 
1.759202	 224.981000 	 
1.762637	 217.046000 	 
1.766072	 215.238000 	 
1.769507	 215.833000 	 
1.772942	 218.893000 	 
1.776377	 217.956000 	 
1.779812	 221.226000 	 
1.783247	 225.778000 	 
1.786683	 223.206000 	 
1.790118	 216.418000 	 
1.793553	 221.499000 	 
1.796988	 220.288000 	 
1.800423	 217.718000 	 
1.803858	 225.293000 	 
1.807293	 231.430000 	 
1.810728	 227.580000 	 
1.814163	 221.023000 	 
1.817599	 216.158000 	 
1.821034	 210.904000 	 
1.824469	 211.568000 	 
1.827904	 219.769000 	 
1.831339	 228.969000 	 
1.834774	 224.932000 	 
1.838209	 225.944000 	 
1.841644	 227.514000 	 
1.845080	 230.157000 	 
1.848515	 217.730000 	 
1.851950	 211.230000 	 
1.855385	 213.654000 	 
1.858820	 222.965000 	 
1.862255	 223.923000 	 
1.865690	 220.401000 	 
1.869125	 214.621000 	 
1.872561	 213.361000 	 
1.875996	 216.519000 	 
1.879431	 225.688000 	 
1.882866	 225.341000 	 
1.886301	 218.201000 	 
1.889736	 214.450000 	 
1.893171	 216.027000 	 
1.896606	 215.393000 	 
1.900041	 214.325000 	 
1.903477	 218.154000 	 
1.906912	 222.964000 	 
1.910347	 221.852000 	 
1.913782	 217.970000 	 
1.917217	 214.730000 	 
1.920652	 211.959000 	 
1.924087	 213.035000 	 
1.927523	 212.894000 	 
1.930958	 213.161000 	 
1.934393	 212.774000 	 
1.937828	 215.701000 	 
1.941263	 218.716000 	 
1.944698	 220.094000 	 
1.948133	 220.472000 	 
1.951568	 220.807000 	 
1.955003	 218.546000 	 
1.958439	 215.419000 	 
1.961874	 213.412000 	 
1.965309	 212.307000 	 
1.968744	 215.883000 	 
1.972179	 219.245000 	 
1.975614	 217.158000 	 
1.979049	 216.365000 	 
1.982485	 215.214000 	 
1.985920	 217.968000 	 
1.989355	 212.534000 	 
1.992790	 209.714000 	 
1.996225	 214.777000 	 
1.999660	 220.951000 	 
2.003095	 219.439000 	 
2.006530	 216.679000 	 
2.009965	 213.733000 	 
2.013401	 215.938000 	 
2.016836	 217.117000 	 
2.020271	 221.692000 	 
2.023706	 217.797000 	 
2.027141	 215.714000 	 
2.030576	 220.698000 	 
2.034011	 218.392000 	 
2.037446	 216.641000 	 
2.040881	 214.446000 	 
2.044316	 212.535000 	 
2.047752	 215.546000 	 
2.051187	 216.937000 	 
2.054622	 220.883000 	 
2.058057	 221.009000 	 
2.061492	 221.518000 	 
2.064927	 220.474000 	 
2.068363	 217.663000 	 
2.071798	 212.257000 	 
2.075233	 214.678000 	 
2.078668	 217.394000 	 
2.082103	 214.969000 	 
2.085538	 215.417000 	 
2.088973	 213.624000 	 
2.092408	 219.131000 	 
2.095843	 219.890000 	 
2.099279	 224.361000 	 
2.102714	 227.004000 	 
2.106149	 223.667000 	 
2.109584	 226.382000 	 
2.113019	 225.668000 	 
2.116454	 229.519000 	 
2.119889	 233.861000 	 
2.123324	 234.570000 	 
2.126759	 233.285000 	 
2.130195	 232.444000 	 
2.133630	 233.288000 	 
2.137065	 231.057000 	 
2.140500	 227.498000 	 
2.143935	 222.466000 	 
2.147370	 220.227000 	 
2.150806	 221.462000 	 
2.154241	 222.904000 	 
2.157675	 221.861000 	 
2.161111	 221.395000 	 
2.164546	 221.195000 	 
2.167981	 219.127000 	 
2.171416	 220.117000 	 
2.174851	 227.365000 	 
2.178286	 230.931000 	 
2.181721	 235.475000 	 
2.185157	 234.179000 	 
2.188592	 229.779000 	 
2.192027	 231.568000 	 
2.195462	 227.136000 	 
2.198897	 231.327000 	 
2.202332	 232.015000 	 
2.205767	 231.006000 	 
2.209203	 228.866000 	 
2.212638	 228.156000 	 
2.216073	 232.890000 	 
2.219508	 233.127000 	 
2.222943	 237.017000 	 
2.226378	 243.395000 	 
2.229813	 240.850000 	 
2.233248	 236.224000 	 
2.236683	 242.337000 	 
2.240118	 249.831000 	 
2.243554	 255.742000 	 
2.246989	 253.725000 	 
2.250424	 256.169000 	 
2.253859	 262.407000 	 
2.257294	 257.799000 	 
2.260729	 261.774000 	 
2.264164	 268.549000 	 
2.267600	 275.642000 	 
2.271035	 285.261000 	 
2.274470	 291.838000 	 
2.277905	 298.291000 	 
2.281340	 297.733000 	 
2.284775	 299.148000 	 
2.288210	 308.251000 	 
2.291645	 323.797000 	 
2.295080	 345.724000 	 
2.298516	 372.214000 	 
2.301951	 409.984000 	 
2.305386	 469.955000 	 
2.308821	 625.461000 	 
2.312256	 1068.110000 	 
2.315691	 2096.200000 	 
2.319126	 4024.240000 	 
2.322561	 6937.710000 	 
2.325997	 8731.560000 	 
2.329432	 8777.680000 	 
2.332867	 6719.710000 	 
2.336302	 4462.190000 	 
2.339737	 2826.430000 	 
2.343172	 2000.810000 	 
2.346607	 1905.630000 	 
2.350042	 2297.040000 	 
2.353477	 3031.180000 	 
2.356913	 3613.780000 	 
2.360348	 3496.530000 	 
2.363783	 2712.280000 	 
2.367218	 1676.840000 	 
2.370653	 1005.090000 	 
2.374088	 623.728000 	 
2.377523	 466.347000 	 
2.380959	 400.276000 	 
2.384394	 361.083000 	 
2.387829	 332.438000 	 
2.391264	 315.156000 	 
2.394699	 303.635000 	 
2.398134	 289.537000 	 
2.401569	 281.642000 	 
2.405004	 274.810000 	 
2.408439	 276.065000 	 
2.411875	 272.664000 	 
2.415310	 265.379000 	 
2.418745	 267.390000 	 
2.422180	 265.410000 	 
2.425615	 262.229000 	 
2.429050	 252.433000 	 
2.432485	 238.544000 	 
2.435920	 236.158000 	 
2.439356	 243.200000 	 
2.442791	 244.665000 	 
2.446226	 244.888000 	 
2.449661	 245.184000 	 
2.453096	 240.353000 	 
2.456531	 230.235000 	 
2.459966	 229.860000 	 
2.463401	 237.267000 	 
2.466836	 235.202000 	 
2.470272	 228.498000 	 
2.473707	 227.811000 	 
2.477142	 230.055000 	 
2.480577	 231.755000 	 
2.484012	 231.408000 	 
2.487447	 229.634000 	 
2.490882	 223.490000 	 
2.494318	 224.751000 	 
2.497753	 227.446000 	 
2.501188	 222.058000 	 
2.504623	 217.354000 	 
2.508058	 220.871000 	 
2.511493	 220.249000 	 
2.514928	 214.592000 	 
2.518363	 215.821000 	 
2.521798	 214.833000 	 
2.525234	 213.300000 	 
2.528669	 209.000000 	 
2.532104	 209.544000 	 
2.535539	 216.269000 	 
2.538974	 221.879000 	 
2.542409	 223.811000 	 
2.545844	 224.367000 	 
2.549279	 217.828000 	 
2.552715	 219.129000 	 
2.556150	 220.104000 	 
2.559585	 219.600000 	 
2.563020	 211.643000 	 
2.566455	 203.459000 	 
2.569890	 205.936000 	 
2.573325	 214.489000 	 
2.576760	 217.290000 	 
2.580195	 218.669000 	 
2.583631	 212.640000 	 
2.587066	 213.500000 	 
2.590501	 208.340000 	 
2.593936	 211.079000 	 
2.597371	 212.413000 	 
2.600806	 213.112000 	 
2.604241	 211.282000 	 
2.607677	 213.995000 	 
2.611112	 213.023000 	 
2.614547	 210.341000 	 
2.617982	 213.784000 	 
2.621417	 208.872000 	 
2.624852	 202.489000 	 
2.628287	 205.350000 	 
2.631723	 202.933000 	 
2.635158	 202.385000 	 
2.638593	 204.413000 	 
2.642028	 206.030000 	 
2.645463	 210.899000 	 
2.648898	 211.333000 	 
2.652333	 210.495000 	 
2.655768	 208.655000 	 
2.659203	 209.267000 	 
2.662638	 210.486000 	 
2.666074	 210.953000 	 
2.669509	 208.972000 	 
2.672944	 212.598000 	 
2.676379	 211.473000 	 
2.679814	 212.239000 	 
2.683249	 210.790000 	 
2.686684	 208.754000 	 
2.690120	 211.716000 	 
2.693555	 207.418000 	 
2.696990	 203.423000 	 
2.700425	 202.903000 	 
2.703860	 204.558000 	 
2.707295	 205.940000 	 
2.710730	 205.980000 	 
2.714165	 207.501000 	 
2.717600	 211.921000 	 
2.721036	 211.223000 	 
2.724471	 206.516000 	 
2.727906	 208.676000 	 
2.731341	 211.519000 	 
2.734776	 209.916000 	 
2.738211	 209.456000 	 
2.741646	 208.649000 	 
2.745081	 201.598000 	 
2.748517	 205.937000 	 
2.751952	 210.351000 	 
2.755387	 211.543000 	 
2.758822	 209.513000 	 
2.762257	 207.531000 	 
2.765692	 212.172000 	 
2.769127	 215.060000 	 
2.772562	 215.520000 	 
2.775997	 218.842000 	 
2.779433	 216.916000 	 
2.782868	 214.129000 	 
2.786303	 215.136000 	 
2.789738	 218.790000 	 
2.793173	 214.646000 	 
2.796608	 210.303000 	 
2.800043	 215.973000 	 
2.803479	 219.211000 	 
2.806914	 221.097000 	 
2.810349	 222.151000 	 
2.813784	 225.977000 	 
2.817219	 225.876000 	 
2.820654	 231.461000 	 
2.824089	 230.700000 	 
2.827524	 227.743000 	 
2.830959	 233.212000 	 
2.834395	 238.765000 	 
2.837830	 251.094000 	 
2.841265	 275.176000 	 
2.844700	 320.507000 	 
2.848135	 421.537000 	 
2.851570	 662.101000 	 
2.855005	 1148.990000 	 
2.858440	 1718.980000 	 
2.861876	 2214.000000 	 
2.865311	 2187.660000 	 
2.868746	 1744.860000 	 
2.872181	 1122.920000 	 
2.875616	 676.656000 	 
2.879051	 439.426000 	 
2.882486	 318.501000 	 
2.885921	 267.455000 	 
2.889356	 245.017000 	 
2.892792	 229.814000 	 
2.896227	 222.690000 	 
2.899662	 222.266000 	 
2.903097	 224.414000 	 
2.906532	 215.752000 	 
2.909967	 214.373000 	 
2.913402	 214.857000 	 
2.916838	 220.373000 	 
2.920273	 220.555000 	 
2.923708	 217.370000 	 
2.927143	 214.395000 	 
2.930578	 209.466000 	 
2.934013	 207.279000 	 
2.937448	 204.424000 	 
2.940883	 206.574000 	 
2.944318	 209.892000 	 
2.947753	 214.277000 	 
2.951189	 215.825000 	 
2.954624	 217.954000 	 
2.958059	 217.264000 	 
2.961494	 212.089000 	 
2.964929	 210.763000 	 
2.968364	 213.941000 	 
2.971799	 215.868000 	 
2.975235	 214.591000 	 
2.978670	 216.154000 	 
2.982105	 216.999000 	 
2.985540	 215.289000 	 
2.988975	 208.008000 	 
2.992410	 204.406000 	 
2.995845	 201.377000 	 
2.999280	 201.357000 	 
3.002715	 209.330000 	 
3.006150	 213.957000 	 
3.009586	 211.488000 	 
3.013021	 208.767000 	 
3.016456	 216.821000 	 
3.019891	 216.403000 	 
3.023326	 213.612000 	 
3.026761	 210.075000 	 
3.030196	 205.386000 	 
3.033632	 202.276000 	 
3.037067	 200.785000 	 
3.040502	 204.283000 	 
3.043937	 202.807000 	 
3.047372	 196.707000 	 
3.050807	 198.960000 	 
3.054242	 204.736000 	 
3.057678	 211.496000 	 
3.061113	 212.426000 	 
3.064548	 210.063000 	 
3.067983	 203.721000 	 
3.071418	 200.859000 	 
3.074853	 202.081000 	 
3.078288	 206.493000 	 
3.081723	 204.698000 	 
3.085158	 202.177000 	 
3.088594	 199.509000 	 
3.092029	 198.768000 	 
3.095464	 197.853000 	 
3.098899	 198.217000 	 
3.102334	 196.308000 	 
3.105769	 199.824000 	 
3.109204	 204.919000 	 
3.112639	 209.185000 	 
3.116075	 208.792000 	 
3.119510	 209.426000 	 
3.122945	 213.977000 	 
3.126380	 210.406000 	 
3.129815	 207.062000 	 
3.133250	 209.139000 	 
3.136685	 212.323000 	 
3.140120	 213.656000 	 
3.143555	 214.602000 	 
3.146990	 216.743000 	 
3.150426	 217.758000 	 
3.153861	 210.599000 	 
3.157296	 202.948000 	 
3.160731	 200.290000 	 
3.164166	 202.958000 	 
3.167601	 206.004000 	 
3.171037	 209.432000 	 
3.174472	 213.335000 	 
3.177907	 218.570000 	 
3.181342	 220.331000 	 
3.184777	 219.429000 	 
3.188212	 221.671000 	 
3.191647	 223.922000 	 
3.195082	 229.748000 	 
3.198517	 234.698000 	 
3.201953	 226.568000 	 
3.205388	 219.653000 	 
3.208823	 221.663000 	 
3.212258	 222.793000 	 
3.215693	 226.138000 	 
3.219128	 229.270000 	 
3.222563	 239.891000 	 
3.225998	 255.128000 	 
3.229433	 296.568000 	 
3.232869	 382.848000 	 
3.236304	 534.250000 	 
3.239739	 741.128000 	 
3.243174	 958.857000 	 
3.246609	 1042.550000 	 
3.250044	 985.663000 	 
3.253479	 801.020000 	 
3.256914	 638.914000 	 
3.260349	 501.488000 	 
3.263785	 410.914000 	 
3.267220	 364.493000 	 
3.270655	 332.214000 	 
3.274090	 303.974000 	 
3.277525	 284.767000 	 
3.280960	 276.135000 	 
3.284396	 275.918000 	 
3.287831	 278.008000 	 
3.291266	 276.724000 	 
3.294701	 280.523000 	 
3.298136	 289.421000 	 
3.301571	 299.169000 	 
3.305006	 306.988000 	 
3.308441	 322.058000 	 
3.311876	 337.608000 	 
3.315311	 363.689000 	 
3.318747	 430.024000 	 
3.322182	 558.924000 	 
3.325617	 793.126000 	 
3.329052	 1214.370000 	 
3.332487	 1641.180000 	 
3.335922	 1916.890000 	 
3.339357	 1830.420000 	 
3.342792	 1410.300000 	 
3.346228	 947.241000 	 
3.349663	 583.820000 	 
3.353098	 394.533000 	 
3.356533	 309.604000 	 
3.359968	 273.945000 	 
3.363403	 254.056000 	 
3.366838	 242.454000 	 
3.370273	 238.415000 	 
3.373709	 233.398000 	 
3.377144	 232.158000 	 
3.380579	 228.061000 	 
3.384014	 218.677000 	 
3.387449	 217.140000 	 
3.390884	 217.904000 	 
3.394319	 216.924000 	 
3.397754	 220.082000 	 
3.401190	 219.610000 	 
3.404625	 216.515000 	 
3.408060	 215.815000 	 
3.411495	 218.352000 	 
3.414930	 212.337000 	 
3.418365	 215.955000 	 
3.421800	 212.557000 	 
3.425235	 214.373000 	 
3.428670	 215.806000 	 
3.432106	 217.396000 	 
3.435541	 218.820000 	 
3.438976	 216.216000 	 
3.442411	 214.681000 	 
3.445846	 211.933000 	 
3.449281	 211.506000 	 
3.452716	 209.786000 	 
3.456151	 211.183000 	 
3.459587	 213.341000 	 
3.463022	 216.562000 	 
3.466457	 220.492000 	 
3.469892	 216.521000 	 
3.473327	 214.832000 	 
3.476762	 214.279000 	 
3.480197	 207.277000 	 
3.483633	 205.511000 	 
3.487068	 206.411000 	 
3.490503	 204.982000 	 
3.493938	 207.626000 	 
3.497373	 215.780000 	 
3.500808	 218.055000 	 
3.504243	 217.294000 	 
3.507678	 215.642000 	 
3.511113	 210.757000 	 
3.514549	 207.431000 	 
3.517984	 207.715000 	 
3.521419	 213.715000 	 
3.524854	 215.318000 	 
3.528289	 215.689000 	 
3.531724	 215.451000 	 
3.535159	 216.321000 	 
3.538594	 213.907000 	 
3.542030	 212.245000 	 
3.545465	 214.624000 	 
3.548900	 218.243000 	 
3.552335	 218.240000 	 
3.555770	 218.766000 	 
3.559205	 215.817000 	 
3.562640	 213.438000 	 
3.566075	 218.717000 	 
3.569510	 217.827000 	 
3.572946	 217.311000 	 
3.576381	 215.822000 	 
3.579816	 213.892000 	 
3.583251	 216.860000 	 
3.586686	 218.254000 	 
3.590121	 219.235000 	 
3.593556	 219.300000 	 
3.596992	 220.836000 	 
3.600427	 222.100000 	 
3.603862	 228.991000 	 
3.607297	 233.286000 	 
3.610732	 229.815000 	 
3.614167	 228.105000 	 
3.617602	 227.025000 	 
3.621037	 226.781000 	 
3.624472	 235.862000 	 
3.627908	 250.262000 	 
3.631343	 269.132000 	 
3.634778	 316.968000 	 
3.638213	 411.333000 	 
3.641648	 559.490000 	 
3.645083	 719.723000 	 
3.648518	 816.549000 	 
3.651953	 817.972000 	 
3.655389	 717.625000 	 
3.658824	 594.555000 	 
3.662259	 483.710000 	 
3.665694	 401.638000 	 
3.669129	 354.011000 	 
3.672564	 327.884000 	 
3.675999	 310.551000 	 
3.679434	 294.306000 	 
3.682869	 286.306000 	 
3.686305	 284.855000 	 
3.689740	 295.505000 	 
3.693175	 315.269000 	 
3.696610	 347.606000 	 
3.700045	 404.383000 	 
3.703480	 478.736000 	 
3.706915	 559.883000 	 
3.710351	 609.042000 	 
3.713786	 604.637000 	 
3.717221	 563.401000 	 
3.720656	 511.769000 	 
3.724091	 501.638000 	 
3.727526	 517.598000 	 
3.730961	 517.319000 	 
3.734396	 473.045000 	 
3.737831	 402.325000 	 
3.741267	 327.839000 	 
3.744702	 278.465000 	 
3.748137	 256.624000 	 
3.751572	 244.242000 	 
3.755007	 238.878000 	 
3.758442	 232.689000 	 
3.761877	 231.438000 	 
3.765312	 236.453000 	 
3.768748	 236.864000 	 
3.772183	 233.979000 	 
3.775618	 229.062000 	 
3.779053	 226.458000 	 
3.782488	 224.685000 	 
3.785923	 222.567000 	 
3.789358	 223.406000 	 
3.792793	 223.076000 	 
3.796228	 227.788000 	 
3.799663	 224.814000 	 
3.803099	 224.285000 	 
3.806534	 222.188000 	 
3.809969	 220.760000 	 
3.813404	 219.423000 	 
3.816839	 220.573000 	 
3.820274	 223.737000 	 
3.823710	 233.746000 	 
3.827145	 232.824000 	 
3.830580	 226.737000 	 
3.834015	 226.521000 	 
3.837450	 222.599000 	 
3.840885	 221.857000 	 
3.844320	 221.501000 	 
3.847755	 220.718000 	 
3.851190	 219.118000 	 
3.854626	 214.940000 	 
3.858061	 213.017000 	 
3.861496	 216.499000 	 
3.864931	 217.390000 	 
3.868366	 222.212000 	 
3.871801	 226.302000 	 
3.875236	 226.124000 	 
3.878671	 222.883000 	 
3.882106	 221.515000 	 
3.885542	 222.452000 	 
3.888977	 224.167000 	 
3.892412	 221.272000 	 
3.895847	 226.358000 	 
3.899282	 229.899000 	 
3.902717	 231.041000 	 
3.906153	 231.887000 	 
3.909587	 228.621000 	 
3.913022	 225.697000 	 
3.916458	 227.993000 	 
3.919893	 230.529000 	 
3.923328	 232.349000 	 
3.926763	 233.072000 	 
3.930198	 233.375000 	 
3.933633	 235.433000 	 
3.937069	 238.986000 	 
3.940504	 239.198000 	 
3.943939	 236.258000 	 
3.947374	 238.776000 	 
3.950809	 242.069000 	 
3.954244	 241.423000 	 
3.957679	 241.402000 	 
3.961114	 237.802000 	 
3.964549	 235.242000 	 
3.967984	 243.365000 	 
3.971420	 247.433000 	 
3.974855	 253.027000 	 
3.978290	 260.836000 	 
3.981725	 268.307000 	 
3.985160	 280.519000 	 
3.988595	 301.823000 	 
3.992030	 334.837000 	 
3.995465	 399.377000 	 
3.998901	 538.271000 	 
4.002336	 794.253000 	 
4.005771	 1129.850000 	 
4.009206	 1440.400000 	 
4.012641	 1622.790000 	 
4.016076	 1583.650000 	 
4.019511	 1395.370000 	 
4.022946	 1127.920000 	 
4.026382	 896.186000 	 
4.029817	 731.117000 	 
4.033252	 614.349000 	 
4.036687	 549.278000 	 
4.040122	 530.571000 	 
4.043557	 535.231000 	 
4.046992	 579.776000 	 
4.050427	 689.088000 	 
4.053863	 885.902000 	 
4.057298	 1261.700000 	 
4.060733	 1776.190000 	 
4.064168	 2345.500000 	 
4.067603	 2746.270000 	 
4.071038	 2654.800000 	 
4.074473	 2198.530000 	 
4.077909	 1553.420000 	 
4.081344	 1020.060000 	 
4.084779	 673.822000 	 
4.088214	 471.438000 	 
4.091649	 370.784000 	 
4.095084	 320.643000 	 
4.098519	 290.265000 	 
4.101954	 275.012000 	 
4.105390	 268.805000 	 
4.108825	 267.771000 	 
4.112260	 261.446000 	 
4.115695	 254.202000 	 
4.119130	 251.573000 	 
4.122565	 249.373000 	 
4.126000	 246.397000 	 
4.129435	 240.898000 	 
4.132870	 239.691000 	 
4.136305	 240.733000 	 
4.139741	 237.469000 	 
4.143176	 233.706000 	 
4.146611	 235.019000 	 
4.150046	 237.108000 	 
4.153481	 236.601000 	 
4.156916	 232.410000 	 
4.160351	 227.308000 	 
4.163786	 233.798000 	 
4.167222	 237.194000 	 
4.170657	 235.826000 	 
4.174092	 232.597000 	 
4.177527	 230.620000 	 
4.180962	 228.511000 	 
4.184397	 228.017000 	 
4.187832	 225.127000 	 
4.191268	 220.938000 	 
4.194703	 221.004000 	 
4.198138	 224.319000 	 
4.201573	 227.759000 	 
4.205008	 228.694000 	 
4.208443	 228.899000 	 
4.211878	 227.406000 	 
4.215313	 222.308000 	 
4.218749	 218.959000 	 
4.222184	 219.610000 	 
4.225619	 221.737000 	 
4.229054	 221.803000 	 
4.232489	 222.294000 	 
4.235924	 222.363000 	 
4.239359	 223.286000 	 
4.242794	 227.142000 	 
4.246229	 228.888000 	 
4.249664	 226.545000 	 
4.253099	 219.046000 	 
4.256535	 216.888000 	 
4.259970	 216.114000 	 
4.263405	 216.458000 	 
4.266840	 220.163000 	 
4.270275	 222.189000 	 
4.273710	 220.394000 	 
4.277145	 223.325000 	 
4.280581	 224.241000 	 
4.284016	 219.160000 	 
4.287451	 215.675000 	 
4.290886	 216.869000 	 
4.294321	 220.624000 	 
4.297756	 218.326000 	 
4.301191	 212.396000 	 
4.304627	 213.987000 	 
4.308062	 216.883000 	 
4.311497	 217.899000 	 
4.314932	 215.626000 	 
4.318367	 214.349000 	 
4.321802	 216.177000 	 
4.325237	 217.664000 	 
4.328672	 220.241000 	 
4.332108	 220.159000 	 
4.335543	 213.952000 	 
4.338978	 210.464000 	 
4.342413	 212.169000 	 
4.345848	 212.483000 	 
4.349283	 210.918000 	 
4.352718	 213.700000 	 
4.356153	 215.349000 	 
4.359589	 219.743000 	 
4.363023	 223.156000 	 
4.366458	 222.755000 	 
4.369894	 221.157000 	 
4.373329	 223.764000 	 
4.376764	 223.131000 	 
4.380199	 220.670000 	 
4.383634	 216.693000 	 
4.387069	 219.800000 	 
4.390504	 221.918000 	 
4.393940	 217.621000 	 
4.397375	 215.430000 	 
4.400810	 213.247000 	 
4.404245	 212.195000 	 
4.407680	 212.436000 	 
4.411115	 209.562000 	 
4.414550	 212.888000 	 
4.417985	 217.344000 	 
4.421421	 215.138000 	 
4.424856	 212.417000 	 
4.428291	 212.298000 	 
4.431726	 212.822000 	 
4.435161	 213.514000 	 
4.438596	 214.864000 	 
4.442031	 214.202000 	 
4.445467	 215.392000 	 
4.448902	 219.297000 	 
4.452337	 215.937000 	 
4.455772	 218.034000 	 
4.459207	 214.996000 	 
4.462642	 214.553000 	 
4.466077	 216.980000 	 
4.469513	 222.614000 	 
4.472948	 222.290000 	 
4.476383	 219.018000 	 
4.479818	 217.997000 	 
4.483252	 221.921000 	 
4.486688	 222.307000 	 
4.490123	 220.767000 	 
4.493558	 217.319000 	 
4.496993	 215.233000 	 
4.500428	 214.853000 	 
4.503863	 220.324000 	 
4.507299	 217.564000 	 
4.510734	 217.742000 	 
4.514169	 216.761000 	 
4.517604	 216.666000 	 
4.521039	 213.881000 	 
4.524474	 212.697000 	 
4.527909	 218.880000 	 
4.531344	 220.991000 	 
4.534780	 221.197000 	 
4.538215	 212.905000 	 
4.541650	 209.525000 	 
4.545085	 207.000000 	 
4.548520	 216.832000 	 
4.551955	 219.295000 	 
4.555390	 218.017000 	 
4.558826	 217.050000 	 
4.562261	 217.663000 	 
4.565696	 219.412000 	 
4.569131	 220.544000 	 
4.572566	 222.434000 	 
4.576001	 221.887000 	 
4.579436	 216.923000 	 
4.582871	 219.327000 	 
4.586307	 220.692000 	 
4.589742	 218.809000 	 
4.593177	 219.455000 	 
4.596612	 225.576000 	 
4.600047	 222.868000 	 
4.603482	 222.972000 	 
4.606917	 223.177000 	 
4.610352	 224.097000 	 
4.613787	 222.595000 	 
4.617222	 222.756000 	 
4.620657	 224.320000 	 
4.624093	 233.784000 	 
4.627528	 244.340000 	 
4.630963	 256.322000 	 
4.634398	 282.656000 	 
4.637833	 340.074000 	 
4.641268	 427.231000 	 
4.644703	 561.836000 	 
4.648139	 745.320000 	 
4.651574	 927.055000 	 
4.655009	 1055.800000 	 
4.658444	 1055.820000 	 
4.661879	 964.003000 	 
4.665314	 808.612000 	 
4.668749	 646.259000 	 
4.672185	 519.416000 	 
4.675620	 422.987000 	 
4.679055	 361.456000 	 
4.682490	 323.929000 	 
4.685925	 304.624000 	 
4.689360	 292.030000 	 
4.692795	 289.440000 	 
4.696230	 291.271000 	 
4.699666	 295.228000 	 
4.703101	 319.667000 	 
4.706536	 358.731000 	 
4.709971	 427.547000 	 
4.713406	 521.395000 	 
4.716841	 603.947000 	 
4.720276	 642.468000 	 
4.723711	 602.799000 	 
4.727146	 517.903000 	 
4.730581	 412.029000 	 
4.734016	 336.743000 	 
4.737452	 288.481000 	 
4.740887	 256.504000 	 
4.744322	 240.950000 	 
4.747757	 232.287000 	 
4.751192	 226.360000 	 
4.754627	 228.315000 	 
4.758062	 228.334000 	 
4.761497	 227.297000 	 
4.764933	 223.275000 	 
4.768368	 222.510000 	 
4.771803	 221.872000 	 
4.775238	 214.452000 	 
4.778673	 215.886000 	 
4.782108	 218.409000 	 
4.785543	 213.642000 	 
4.788979	 214.481000 	 
4.792414	 215.775000 	 
4.795849	 216.869000 	 
4.799284	 219.446000 	 
4.802719	 222.727000 	 
4.806154	 223.647000 	 
4.809589	 221.129000 	 
4.813025	 216.861000 	 
4.816460	 218.022000 	 
4.819895	 219.567000 	 
4.823330	 215.992000 	 
4.826765	 212.789000 	 
4.830200	 212.299000 	 
4.833635	 216.049000 	 
4.837071	 219.034000 	 
4.840506	 219.433000 	 
4.843940	 221.320000 	 
4.847375	 222.740000 	 
4.850810	 221.434000 	 
4.854246	 226.404000 	 
4.857681	 241.682000 	 
4.861116	 259.028000 	 
4.864551	 276.852000 	 
4.867986	 288.048000 	 
4.871421	 292.018000 	 
4.874856	 283.368000 	 
4.878292	 274.273000 	 
4.881727	 263.269000 	 
4.885162	 247.501000 	 
4.888597	 237.532000 	 
4.892032	 231.462000 	 
4.895467	 226.064000 	 
4.898902	 229.570000 	 
4.902338	 230.105000 	 
4.905773	 226.165000 	 
4.909208	 224.157000 	 
4.912643	 221.825000 	 
4.916078	 226.199000 	 
4.919513	 231.209000 	 
4.922948	 244.415000 	 
4.926384	 264.910000 	 
4.929819	 304.618000 	 
4.933254	 355.581000 	 
4.936689	 424.400000 	 
4.940124	 506.174000 	 
4.943559	 556.518000 	 
4.946994	 567.599000 	 
4.950429	 531.337000 	 
4.953865	 473.045000 	 
4.957300	 408.025000 	 
4.960735	 349.775000 	 
4.964169	 313.123000 	 
4.967605	 283.154000 	 
4.971040	 267.539000 	 
4.974475	 268.082000 	 
4.977910	 276.016000 	 
4.981345	 286.775000 	 
4.984780	 306.520000 	 
4.988215	 323.660000 	 
4.991651	 329.148000 	 
4.995086	 320.981000 	 
4.998521	 309.460000 	 
5.001956	 294.640000 	 
5.005391	 280.411000 	 
5.008826	 270.383000 	 
5.012261	 256.081000 	 
5.015696	 240.909000 	 
5.019132	 231.901000 	 
5.022567	 220.735000 	 
5.026002	 215.733000 	 
5.029437	 212.064000 	 
5.032872	 212.863000 	 
5.036307	 212.720000 	 
5.039743	 213.553000 	 
5.043178	 217.867000 	 
5.046613	 217.231000 	 
5.050048	 217.627000 	 
5.053483	 216.953000 	 
5.056918	 216.178000 	 
5.060353	 218.860000 	 
5.063788	 217.725000 	 
5.067223	 217.616000 	 
5.070659	 215.954000 	 
5.074094	 216.229000 	 
5.077529	 215.103000 	 
5.080964	 213.386000 	 
5.084399	 211.113000 	 
5.087834	 210.371000 	 
5.091269	 213.334000 	 
5.094704	 211.560000 	 
5.098139	 209.462000 	 
5.101574	 208.325000 	 
5.105010	 212.442000 	 
5.108445	 219.764000 	 
5.111880	 222.492000 	 
5.115315	 223.183000 	 
5.118750	 227.029000 	 
5.122185	 233.199000 	 
5.125620	 239.061000 	 
5.129055	 249.701000 	 
