1.010345	 233.600000 	 
1.013780	 227.045000 	 
1.017215	 229.150000 	 
1.020650	 228.709000 	 
1.024086	 220.266000 	 
1.027521	 225.310000 	 
1.030956	 225.411000 	 
1.034391	 219.574000 	 
1.037826	 214.176000 	 
1.041261	 218.263000 	 
1.044696	 222.623000 	 
1.048132	 226.733000 	 
1.051567	 228.321000 	 
1.055002	 229.649000 	 
1.058437	 228.894000 	 
1.061872	 225.090000 	 
1.065307	 220.414000 	 
1.068742	 221.526000 	 
1.072177	 214.724000 	 
1.075612	 206.247000 	 
1.079048	 201.498000 	 
1.082483	 216.683000 	 
1.085918	 230.535000 	 
1.089353	 232.267000 	 
1.092788	 227.136000 	 
1.096223	 223.096000 	 
1.099658	 214.445000 	 
1.103093	 211.769000 	 
1.106529	 201.782000 	 
1.109964	 202.363000 	 
1.113399	 217.050000 	 
1.116834	 224.102000 	 
1.120269	 226.875000 	 
1.123704	 226.317000 	 
1.127139	 220.648000 	 
1.130574	 218.155000 	 
1.134009	 216.576000 	 
1.137445	 215.724000 	 
1.140880	 219.170000 	 
1.144315	 224.815000 	 
1.147750	 220.811000 	 
1.151185	 221.950000 	 
1.154620	 229.682000 	 
1.158055	 229.515000 	 
1.161490	 222.489000 	 
1.164926	 222.934000 	 
1.168361	 218.638000 	 
1.171796	 218.165000 	 
1.175231	 216.881000 	 
1.178666	 217.172000 	 
1.182101	 215.280000 	 
1.185536	 209.369000 	 
1.188971	 208.048000 	 
1.192406	 211.275000 	 
1.195842	 218.169000 	 
1.199277	 228.011000 	 
1.202712	 226.110000 	 
1.206147	 220.017000 	 
1.209582	 223.403000 	 
1.213017	 218.482000 	 
1.216452	 213.307000 	 
1.219888	 215.515000 	 
1.223323	 216.247000 	 
1.226758	 218.150000 	 
1.230193	 226.294000 	 
1.233628	 220.290000 	 
1.237063	 222.201000 	 
1.240498	 221.166000 	 
1.243933	 213.724000 	 
1.247369	 217.229000 	 
1.250804	 226.252000 	 
1.254239	 225.429000 	 
1.257674	 231.849000 	 
1.261109	 235.126000 	 
1.264544	 230.135000 	 
1.267979	 230.629000 	 
1.271414	 234.554000 	 
1.274849	 232.370000 	 
1.278285	 225.798000 	 
1.281720	 223.153000 	 
1.285155	 227.270000 	 
1.288590	 228.590000 	 
1.292025	 226.372000 	 
1.295460	 226.250000 	 
1.298895	 226.559000 	 
1.302330	 231.566000 	 
1.305765	 235.237000 	 
1.309201	 228.144000 	 
1.312636	 219.379000 	 
1.316071	 222.497000 	 
1.319506	 235.876000 	 
1.322941	 232.058000 	 
1.326376	 219.650000 	 
1.329811	 214.880000 	 
1.333247	 216.117000 	 
1.336682	 215.230000 	 
1.340117	 215.685000 	 
1.343552	 215.383000 	 
1.346987	 217.125000 	 
1.350422	 213.205000 	 
1.353857	 224.612000 	 
1.357292	 227.999000 	 
1.360727	 224.910000 	 
1.364163	 218.888000 	 
1.367598	 224.858000 	 
1.371033	 224.190000 	 
1.374468	 220.545000 	 
1.377903	 223.006000 	 
1.381338	 224.418000 	 
1.384773	 215.980000 	 
1.388208	 213.140000 	 
1.391644	 208.210000 	 
1.395079	 206.576000 	 
1.398514	 217.692000 	 
1.401949	 221.237000 	 
1.405384	 224.193000 	 
1.408819	 226.389000 	 
1.412254	 229.871000 	 
1.415689	 219.678000 	 
1.419124	 213.157000 	 
1.422560	 214.009000 	 
1.425995	 215.694000 	 
1.429430	 219.265000 	 
1.432865	 215.992000 	 
1.436300	 219.420000 	 
1.439735	 226.633000 	 
1.443170	 227.926000 	 
1.446605	 234.232000 	 
1.450041	 227.936000 	 
1.453476	 226.460000 	 
1.456911	 222.713000 	 
1.460346	 226.700000 	 
1.463781	 224.208000 	 
1.467216	 223.959000 	 
1.470651	 218.409000 	 
1.474087	 213.923000 	 
1.477521	 214.394000 	 
1.480957	 222.189000 	 
1.484392	 221.359000 	 
1.487827	 220.336000 	 
1.491262	 221.572000 	 
1.494697	 220.872000 	 
1.498132	 221.846000 	 
1.501567	 218.930000 	 
1.505003	 217.885000 	 
1.508438	 211.593000 	 
1.511873	 217.304000 	 
1.515308	 223.051000 	 
1.518743	 224.262000 	 
1.522178	 222.714000 	 
1.525613	 223.643000 	 
1.529048	 223.062000 	 
1.532484	 221.988000 	 
1.535919	 221.316000 	 
1.539354	 220.212000 	 
1.542789	 216.626000 	 
1.546224	 210.796000 	 
1.549659	 213.813000 	 
1.553094	 221.034000 	 
1.556529	 226.104000 	 
1.559965	 233.005000 	 
1.563400	 234.135000 	 
1.566835	 238.687000 	 
1.570270	 237.353000 	 
1.573705	 232.799000 	 
1.577140	 226.125000 	 
1.580575	 232.175000 	 
1.584010	 236.817000 	 
1.587446	 234.669000 	 
1.590881	 237.381000 	 
1.594316	 246.478000 	 
1.597751	 253.896000 	 
1.601186	 270.743000 	 
1.604621	 295.829000 	 
1.608056	 348.280000 	 
1.611491	 469.868000 	 
1.614926	 677.420000 	 
1.618362	 948.457000 	 
1.621797	 1205.200000 	 
1.625232	 1192.410000 	 
1.628667	 1002.130000 	 
1.632102	 714.032000 	 
1.635537	 563.466000 	 
1.638972	 465.131000 	 
1.642407	 419.320000 	 
1.645843	 411.205000 	 
1.649278	 431.453000 	 
1.652713	 488.537000 	 
1.656148	 662.810000 	 
1.659583	 953.565000 	 
1.663018	 1338.500000 	 
1.666453	 1555.620000 	 
1.669888	 1508.200000 	 
1.673324	 1141.610000 	 
1.676759	 695.518000 	 
1.680194	 444.419000 	 
1.683629	 317.487000 	 
1.687064	 274.229000 	 
1.690499	 257.886000 	 
1.693934	 250.491000 	 
1.697369	 239.972000 	 
1.700805	 238.878000 	 
1.704240	 237.995000 	 
1.707675	 239.180000 	 
1.711110	 233.295000 	 
1.714545	 225.973000 	 
1.717980	 225.986000 	 
1.721415	 232.662000 	 
1.724850	 235.158000 	 
1.728285	 229.973000 	 
1.731721	 225.655000 	 
1.735156	 225.384000 	 
1.738591	 226.863000 	 
1.742026	 222.678000 	 
1.745461	 216.513000 	 
1.748896	 211.245000 	 
1.752331	 216.343000 	 
1.755766	 213.355000 	 
1.759202	 209.046000 	 
1.762637	 212.333000 	 
1.766072	 211.297000 	 
1.769507	 216.221000 	 
1.772942	 222.307000 	 
1.776377	 222.959000 	 
1.779812	 219.715000 	 
1.783247	 220.854000 	 
1.786683	 225.183000 	 
1.790118	 221.124000 	 
1.793553	 217.497000 	 
1.796988	 221.199000 	 
1.800423	 221.950000 	 
1.803858	 222.147000 	 
1.807293	 224.098000 	 
1.810728	 227.249000 	 
1.814163	 224.879000 	 
1.817599	 216.396000 	 
1.821034	 217.201000 	 
1.824469	 215.990000 	 
1.827904	 210.322000 	 
1.831339	 208.447000 	 
1.834774	 214.900000 	 
1.838209	 220.768000 	 
1.841644	 221.667000 	 
1.845080	 223.555000 	 
1.848515	 226.064000 	 
1.851950	 225.108000 	 
1.855385	 225.355000 	 
1.858820	 223.154000 	 
1.862255	 221.577000 	 
1.865690	 220.703000 	 
1.869125	 221.772000 	 
1.872561	 218.218000 	 
1.875996	 214.685000 	 
1.879431	 220.539000 	 
1.882866	 219.064000 	 
1.886301	 216.219000 	 
1.889736	 220.925000 	 
1.893171	 222.728000 	 
1.896606	 223.323000 	 
1.900041	 227.494000 	 
1.903477	 221.557000 	 
1.906912	 221.571000 	 
1.910347	 222.982000 	 
1.913782	 217.841000 	 
1.917217	 218.185000 	 
1.920652	 212.276000 	 
1.924087	 216.504000 	 
1.927523	 220.883000 	 
1.930958	 225.052000 	 
1.934393	 229.199000 	 
1.937828	 228.535000 	 
1.941263	 231.600000 	 
1.944698	 234.638000 	 
1.948133	 231.533000 	 
1.951568	 226.465000 	 
1.955003	 227.896000 	 
1.958439	 228.493000 	 
1.961874	 224.049000 	 
1.965309	 214.396000 	 
1.968744	 212.521000 	 
1.972179	 213.734000 	 
1.975614	 219.486000 	 
1.979049	 224.698000 	 
1.982485	 225.436000 	 
1.985920	 223.165000 	 
1.989355	 214.857000 	 
1.992790	 217.792000 	 
1.996225	 218.435000 	 
1.999660	 220.706000 	 
2.003095	 222.794000 	 
2.006530	 223.506000 	 
2.009965	 214.468000 	 
2.013401	 214.848000 	 
2.016836	 221.099000 	 
2.020271	 222.065000 	 
2.023706	 219.490000 	 
2.027141	 224.926000 	 
2.030576	 229.286000 	 
2.034011	 221.928000 	 
2.037446	 212.221000 	 
2.040881	 213.613000 	 
2.044316	 219.352000 	 
2.047752	 218.418000 	 
2.051187	 215.072000 	 
2.054622	 220.382000 	 
2.058057	 221.624000 	 
2.061492	 222.956000 	 
2.064927	 222.970000 	 
2.068363	 222.555000 	 
2.071798	 225.409000 	 
2.075233	 235.600000 	 
2.078668	 231.821000 	 
2.082103	 215.324000 	 
2.085538	 216.326000 	 
2.088973	 216.966000 	 
2.092408	 210.879000 	 
2.095843	 212.296000 	 
2.099279	 215.873000 	 
2.102714	 222.568000 	 
2.106149	 221.823000 	 
2.109584	 221.883000 	 
2.113019	 225.253000 	 
2.116454	 226.870000 	 
2.119889	 222.983000 	 
2.123324	 222.065000 	 
2.126759	 224.760000 	 
2.130195	 224.642000 	 
2.133630	 227.485000 	 
2.137065	 225.402000 	 
2.140500	 221.736000 	 
2.143935	 220.337000 	 
2.147370	 218.229000 	 
2.150806	 221.680000 	 
2.154241	 224.112000 	 
2.157675	 227.579000 	 
2.161111	 223.737000 	 
2.164546	 226.431000 	 
2.167981	 231.610000 	 
2.171416	 235.835000 	 
2.174851	 229.567000 	 
2.178286	 226.517000 	 
2.181721	 228.202000 	 
2.185157	 227.759000 	 
2.188592	 226.225000 	 
2.192027	 232.398000 	 
2.195462	 232.671000 	 
2.198897	 232.197000 	 
2.202332	 229.601000 	 
2.205767	 230.711000 	 
2.209203	 231.552000 	 
2.212638	 238.323000 	 
2.216073	 246.125000 	 
2.219508	 248.284000 	 
2.222943	 250.832000 	 
2.226378	 254.561000 	 
2.229813	 254.796000 	 
2.233248	 253.272000 	 
2.236683	 252.908000 	 
2.240118	 252.073000 	 
2.243554	 250.609000 	 
2.246989	 251.121000 	 
2.250424	 252.444000 	 
2.253859	 256.292000 	 
2.257294	 266.811000 	 
2.260729	 271.523000 	 
2.264164	 272.520000 	 
2.267600	 281.554000 	 
2.271035	 290.378000 	 
2.274470	 292.203000 	 
2.277905	 293.685000 	 
2.281340	 307.358000 	 
2.284775	 316.153000 	 
2.288210	 320.387000 	 
2.291645	 324.754000 	 
2.295080	 337.334000 	 
2.298516	 357.745000 	 
2.301951	 404.286000 	 
2.305386	 468.318000 	 
2.308821	 607.921000 	 
2.312256	 993.088000 	 
2.315691	 1895.910000 	 
2.319126	 3658.190000 	 
2.322561	 6434.460000 	 
2.325997	 8329.560000 	 
2.329432	 8689.630000 	 
2.332867	 6959.750000 	 
2.336302	 4726.840000 	 
2.339737	 3021.550000 	 
2.343172	 2118.100000 	 
2.346607	 2003.550000 	 
2.350042	 2400.610000 	 
2.353477	 3188.010000 	 
2.356913	 3786.630000 	 
2.360348	 3636.340000 	 
2.363783	 2825.210000 	 
2.367218	 1721.970000 	 
2.370653	 1013.510000 	 
2.374088	 623.963000 	 
2.377523	 460.309000 	 
2.380959	 388.980000 	 
2.384394	 352.695000 	 
2.387829	 330.999000 	 
2.391264	 315.530000 	 
2.394699	 299.767000 	 
2.398134	 295.865000 	 
2.401569	 292.799000 	 
2.405004	 286.831000 	 
2.408439	 281.816000 	 
2.411875	 280.774000 	 
2.415310	 276.899000 	 
2.418745	 269.474000 	 
2.422180	 258.195000 	 
2.425615	 251.352000 	 
2.429050	 246.579000 	 
2.432485	 245.978000 	 
2.435920	 242.378000 	 
2.439356	 238.963000 	 
2.442791	 234.291000 	 
2.446226	 233.903000 	 
2.449661	 231.324000 	 
2.453096	 229.158000 	 
2.456531	 231.185000 	 
2.459966	 239.406000 	 
2.463401	 245.834000 	 
2.466836	 242.059000 	 
2.470272	 232.023000 	 
2.473707	 233.106000 	 
2.477142	 234.173000 	 
2.480577	 229.455000 	 
2.484012	 223.280000 	 
2.487447	 219.456000 	 
2.490882	 219.561000 	 
2.494318	 220.796000 	 
2.497753	 215.645000 	 
2.501188	 217.474000 	 
2.504623	 219.782000 	 
2.508058	 218.938000 	 
2.511493	 218.887000 	 
2.514928	 217.952000 	 
2.518363	 213.027000 	 
2.521798	 216.161000 	 
2.525234	 220.310000 	 
2.528669	 221.475000 	 
2.532104	 217.442000 	 
2.535539	 218.773000 	 
2.538974	 218.156000 	 
2.542409	 221.742000 	 
2.545844	 221.707000 	 
2.549279	 215.734000 	 
2.552715	 218.105000 	 
2.556150	 217.877000 	 
2.559585	 211.109000 	 
2.563020	 209.419000 	 
2.566455	 210.631000 	 
2.569890	 212.732000 	 
2.573325	 213.258000 	 
2.576760	 213.410000 	 
2.580195	 211.990000 	 
2.583631	 211.515000 	 
2.587066	 212.318000 	 
2.590501	 215.696000 	 
2.593936	 214.333000 	 
2.597371	 211.110000 	 
2.600806	 206.688000 	 
2.604241	 212.892000 	 
2.607677	 217.565000 	 
2.611112	 215.185000 	 
2.614547	 211.515000 	 
2.617982	 208.913000 	 
2.621417	 211.739000 	 
2.624852	 214.416000 	 
2.628287	 206.591000 	 
2.631723	 207.963000 	 
2.635158	 209.737000 	 
2.638593	 207.191000 	 
2.642028	 209.932000 	 
2.645463	 214.462000 	 
2.648898	 215.404000 	 
2.652333	 211.565000 	 
2.655768	 209.320000 	 
2.659203	 208.276000 	 
2.662638	 204.277000 	 
2.666074	 200.095000 	 
2.669509	 205.288000 	 
2.672944	 209.670000 	 
2.676379	 213.658000 	 
2.679814	 212.487000 	 
2.683249	 199.743000 	 
2.686684	 193.864000 	 
2.690120	 198.655000 	 
2.693555	 204.067000 	 
2.696990	 202.220000 	 
2.700425	 202.111000 	 
2.703860	 204.487000 	 
2.707295	 207.384000 	 
2.710730	 208.493000 	 
2.714165	 206.862000 	 
2.717600	 208.096000 	 
2.721036	 203.759000 	 
2.724471	 202.974000 	 
2.727906	 202.696000 	 
2.731341	 201.752000 	 
2.734776	 198.168000 	 
2.738211	 199.750000 	 
2.741646	 210.793000 	 
2.745081	 206.850000 	 
2.748517	 206.979000 	 
2.751952	 209.570000 	 
2.755387	 208.203000 	 
2.758822	 208.601000 	 
2.762257	 206.985000 	 
2.765692	 206.071000 	 
2.769127	 204.109000 	 
2.772562	 202.926000 	 
2.775997	 210.120000 	 
2.779433	 205.427000 	 
2.782868	 202.835000 	 
2.786303	 208.110000 	 
2.789738	 208.940000 	 
2.793173	 206.283000 	 
2.796608	 205.027000 	 
2.800043	 209.880000 	 
2.803479	 215.182000 	 
2.806914	 218.285000 	 
2.810349	 215.975000 	 
2.813784	 219.193000 	 
2.817219	 218.986000 	 
2.820654	 220.717000 	 
2.824089	 224.581000 	 
2.827524	 226.916000 	 
2.830959	 233.819000 	 
2.834395	 238.578000 	 
2.837830	 249.257000 	 
2.841265	 277.006000 	 
2.844700	 322.029000 	 
2.848135	 412.270000 	 
2.851570	 630.879000 	 
2.855005	 1088.180000 	 
2.858440	 1643.500000 	 
2.861876	 2158.380000 	 
2.865311	 2172.860000 	 
2.868746	 1778.260000 	 
2.872181	 1165.710000 	 
2.875616	 694.676000 	 
2.879051	 441.637000 	 
2.882486	 320.872000 	 
2.885921	 269.112000 	 
2.889356	 251.402000 	 
2.892792	 248.945000 	 
2.896227	 236.061000 	 
2.899662	 228.338000 	 
2.903097	 221.182000 	 
2.906532	 217.906000 	 
2.909967	 219.589000 	 
2.913402	 223.201000 	 
2.916838	 224.151000 	 
2.920273	 218.125000 	 
2.923708	 216.558000 	 
2.927143	 218.380000 	 
2.930578	 220.904000 	 
2.934013	 220.476000 	 
2.937448	 219.238000 	 
2.940883	 214.774000 	 
2.944318	 210.361000 	 
2.947753	 204.435000 	 
2.951189	 203.780000 	 
2.954624	 209.039000 	 
2.958059	 212.458000 	 
2.961494	 217.776000 	 
2.964929	 214.667000 	 
2.968364	 208.316000 	 
2.971799	 204.726000 	 
2.975235	 201.314000 	 
2.978670	 202.372000 	 
2.982105	 204.375000 	 
2.985540	 208.619000 	 
2.988975	 210.376000 	 
2.992410	 211.129000 	 
2.995845	 209.766000 	 
2.999280	 209.701000 	 
3.002715	 210.128000 	 
3.006150	 208.893000 	 
3.009586	 209.653000 	 
3.013021	 207.548000 	 
3.016456	 208.674000 	 
3.019891	 206.729000 	 
3.023326	 205.838000 	 
3.026761	 207.658000 	 
3.030196	 205.298000 	 
3.033632	 205.445000 	 
3.037067	 209.180000 	 
3.040502	 212.965000 	 
3.043937	 213.054000 	 
3.047372	 206.280000 	 
3.050807	 206.602000 	 
3.054242	 208.576000 	 
3.057678	 210.155000 	 
3.061113	 211.544000 	 
3.064548	 212.590000 	 
3.067983	 209.690000 	 
3.071418	 207.011000 	 
3.074853	 206.855000 	 
3.078288	 207.838000 	 
3.081723	 206.687000 	 
3.085158	 209.359000 	 
3.088594	 215.321000 	 
3.092029	 210.644000 	 
3.095464	 206.112000 	 
3.098899	 203.829000 	 
3.102334	 207.636000 	 
3.105769	 207.816000 	 
3.109204	 205.614000 	 
3.112639	 206.540000 	 
3.116075	 208.438000 	 
3.119510	 208.963000 	 
3.122945	 207.662000 	 
3.126380	 200.903000 	 
3.129815	 202.935000 	 
3.133250	 206.978000 	 
3.136685	 204.852000 	 
3.140120	 204.961000 	 
3.143555	 208.042000 	 
3.146990	 208.419000 	 
3.150426	 210.084000 	 
3.153861	 205.477000 	 
3.157296	 206.039000 	 
3.160731	 208.545000 	 
3.164166	 212.800000 	 
3.167601	 212.527000 	 
3.171037	 210.433000 	 
3.174472	 211.444000 	 
3.177907	 210.011000 	 
3.181342	 216.151000 	 
3.184777	 220.394000 	 
3.188212	 220.027000 	 
3.191647	 220.688000 	 
3.195082	 216.599000 	 
3.198517	 221.141000 	 
3.201953	 221.381000 	 
3.205388	 219.066000 	 
3.208823	 226.917000 	 
3.212258	 227.523000 	 
3.215693	 230.124000 	 
3.219128	 234.743000 	 
3.222563	 242.293000 	 
3.225998	 259.272000 	 
3.229433	 291.253000 	 
3.232869	 377.447000 	 
3.236304	 519.811000 	 
3.239739	 710.533000 	 
3.243174	 914.899000 	 
3.246609	 994.554000 	 
3.250044	 943.603000 	 
3.253479	 766.397000 	 
3.256914	 617.848000 	 
3.260349	 490.636000 	 
3.263785	 400.862000 	 
3.267220	 355.534000 	 
3.270655	 326.529000 	 
3.274090	 308.448000 	 
3.277525	 292.533000 	 
3.280960	 282.672000 	 
3.284396	 285.092000 	 
3.287831	 283.387000 	 
3.291266	 281.126000 	 
3.294701	 282.467000 	 
3.298136	 286.402000 	 
3.301571	 292.607000 	 
3.305006	 301.193000 	 
3.308441	 319.042000 	 
3.311876	 341.088000 	 
3.315311	 378.318000 	 
3.318747	 445.585000 	 
3.322182	 587.912000 	 
3.325617	 845.396000 	 
3.329052	 1283.880000 	 
3.332487	 1706.870000 	 
3.335922	 1968.940000 	 
3.339357	 1843.490000 	 
3.342792	 1382.560000 	 
3.346228	 916.945000 	 
3.349663	 568.718000 	 
3.353098	 390.415000 	 
3.356533	 306.559000 	 
3.359968	 269.418000 	 
3.363403	 256.393000 	 
3.366838	 252.168000 	 
3.370273	 245.832000 	 
3.373709	 236.634000 	 
3.377144	 232.349000 	 
3.380579	 232.348000 	 
3.384014	 231.764000 	 
3.387449	 228.083000 	 
3.390884	 226.771000 	 
3.394319	 221.266000 	 
3.397754	 223.836000 	 
3.401190	 224.812000 	 
3.404625	 220.781000 	 
3.408060	 220.327000 	 
3.411495	 216.024000 	 
3.414930	 214.545000 	 
3.418365	 209.306000 	 
3.421800	 209.065000 	 
3.425235	 213.625000 	 
3.428670	 212.917000 	 
3.432106	 215.474000 	 
3.435541	 220.174000 	 
3.438976	 219.308000 	 
3.442411	 214.235000 	 
3.445846	 214.008000 	 
3.449281	 221.862000 	 
3.452716	 219.283000 	 
3.456151	 215.607000 	 
3.459587	 215.969000 	 
3.463022	 211.783000 	 
3.466457	 208.667000 	 
3.469892	 213.137000 	 
3.473327	 212.099000 	 
3.476762	 213.977000 	 
3.480197	 217.566000 	 
3.483633	 221.905000 	 
3.487068	 218.911000 	 
3.490503	 215.281000 	 
3.493938	 214.666000 	 
3.497373	 210.476000 	 
3.500808	 209.249000 	 
3.504243	 212.832000 	 
3.507678	 213.857000 	 
3.511113	 212.589000 	 
3.514549	 218.250000 	 
3.517984	 217.128000 	 
3.521419	 217.854000 	 
3.524854	 213.746000 	 
3.528289	 212.766000 	 
3.531724	 213.922000 	 
3.535159	 212.329000 	 
3.538594	 213.573000 	 
3.542030	 213.922000 	 
3.545465	 217.209000 	 
3.548900	 217.609000 	 
3.552335	 217.947000 	 
3.555770	 212.597000 	 
3.559205	 214.011000 	 
3.562640	 216.077000 	 
3.566075	 217.437000 	 
3.569510	 214.554000 	 
3.572946	 215.909000 	 
3.576381	 215.032000 	 
3.579816	 213.358000 	 
3.583251	 216.277000 	 
3.586686	 217.232000 	 
3.590121	 217.418000 	 
3.593556	 220.396000 	 
3.596992	 221.269000 	 
3.600427	 223.063000 	 
3.603862	 224.122000 	 
3.607297	 226.243000 	 
3.610732	 223.985000 	 
3.614167	 224.726000 	 
3.617602	 224.097000 	 
3.621037	 229.659000 	 
3.624472	 240.609000 	 
3.627908	 250.697000 	 
3.631343	 269.505000 	 
3.634778	 313.154000 	 
3.638213	 389.498000 	 
3.641648	 509.655000 	 
3.645083	 657.008000 	 
3.648518	 761.695000 	 
3.651953	 788.270000 	 
3.655389	 710.737000 	 
3.658824	 592.096000 	 
3.662259	 475.437000 	 
3.665694	 397.707000 	 
3.669129	 353.074000 	 
3.672564	 317.300000 	 
3.675999	 296.575000 	 
3.679434	 291.382000 	 
3.682869	 290.652000 	 
3.686305	 296.056000 	 
3.689740	 303.322000 	 
3.693175	 316.937000 	 
3.696610	 345.696000 	 
3.700045	 395.991000 	 
3.703480	 475.687000 	 
3.706915	 566.111000 	 
3.710351	 621.575000 	 
3.713786	 620.442000 	 
3.717221	 581.913000 	 
3.720656	 542.307000 	 
3.724091	 532.596000 	 
3.727526	 546.787000 	 
3.730961	 535.137000 	 
3.734396	 481.274000 	 
3.737831	 405.103000 	 
3.741267	 329.186000 	 
3.744702	 284.513000 	 
3.748137	 258.744000 	 
3.751572	 247.453000 	 
3.755007	 242.782000 	 
3.758442	 241.724000 	 
3.761877	 235.224000 	 
3.765312	 230.830000 	 
3.768748	 231.060000 	 
3.772183	 230.708000 	 
3.775618	 228.978000 	 
3.779053	 225.964000 	 
3.782488	 227.222000 	 
3.785923	 225.042000 	 
3.789358	 223.877000 	 
3.792793	 222.444000 	 
3.796228	 223.290000 	 
3.799663	 222.918000 	 
3.803099	 224.137000 	 
3.806534	 224.559000 	 
3.809969	 225.324000 	 
3.813404	 226.176000 	 
3.816839	 228.832000 	 
3.820274	 230.575000 	 
3.823710	 230.188000 	 
3.827145	 228.295000 	 
3.830580	 224.864000 	 
3.834015	 227.862000 	 
3.837450	 223.571000 	 
3.840885	 223.845000 	 
3.844320	 225.924000 	 
3.847755	 224.158000 	 
3.851190	 223.113000 	 
3.854626	 223.623000 	 
3.858061	 224.173000 	 
3.861496	 224.160000 	 
3.864931	 222.786000 	 
3.868366	 220.446000 	 
3.871801	 216.429000 	 
3.875236	 219.532000 	 
3.878671	 224.546000 	 
3.882106	 228.698000 	 
3.885542	 230.176000 	 
3.888977	 232.401000 	 
3.892412	 230.665000 	 
3.895847	 225.136000 	 
3.899282	 222.857000 	 
3.902717	 228.197000 	 
3.906153	 230.216000 	 
3.909587	 230.164000 	 
3.913022	 228.566000 	 
3.916458	 225.754000 	 
3.919893	 223.936000 	 
3.923328	 225.672000 	 
3.926763	 226.424000 	 
3.930198	 228.767000 	 
3.933633	 229.830000 	 
3.937069	 232.317000 	 
3.940504	 236.032000 	 
3.943939	 232.696000 	 
3.947374	 232.516000 	 
3.950809	 235.040000 	 
3.954244	 238.116000 	 
3.957679	 239.815000 	 
3.961114	 242.069000 	 
3.964549	 244.520000 	 
3.967984	 245.192000 	 
3.971420	 248.713000 	 
3.974855	 256.222000 	 
3.978290	 265.724000 	 
3.981725	 268.874000 	 
3.985160	 275.497000 	 
3.988595	 289.298000 	 
3.992030	 323.228000 	 
3.995465	 388.456000 	 
3.998901	 501.554000 	 
4.002336	 714.890000 	 
4.005771	 1016.770000 	 
4.009206	 1329.120000 	 
4.012641	 1550.730000 	 
4.016076	 1560.190000 	 
4.019511	 1405.560000 	 
4.022946	 1152.570000 	 
4.026382	 916.479000 	 
4.029817	 743.810000 	 
4.033252	 628.529000 	 
4.036687	 564.191000 	 
4.040122	 540.302000 	 
4.043557	 539.463000 	 
4.046992	 578.684000 	 
4.050427	 673.924000 	 
4.053863	 852.089000 	 
4.057298	 1210.790000 	 
4.060733	 1728.320000 	 
4.064168	 2322.920000 	 
4.067603	 2774.200000 	 
4.071038	 2734.410000 	 
4.074473	 2285.600000 	 
4.077909	 1619.250000 	 
4.081344	 1066.320000 	 
4.084779	 698.878000 	 
4.088214	 479.892000 	 
4.091649	 375.839000 	 
4.095084	 325.879000 	 
4.098519	 298.038000 	 
4.101954	 281.733000 	 
4.105390	 274.116000 	 
4.108825	 271.867000 	 
4.112260	 263.543000 	 
4.115695	 257.043000 	 
4.119130	 256.723000 	 
4.122565	 250.338000 	 
4.126000	 246.062000 	 
4.129435	 240.742000 	 
4.132870	 241.269000 	 
4.136305	 245.651000 	 
4.139741	 248.474000 	 
4.143176	 250.925000 	 
4.146611	 238.235000 	 
4.150046	 228.792000 	 
4.153481	 222.313000 	 
4.156916	 226.080000 	 
4.160351	 230.739000 	 
4.163786	 229.462000 	 
4.167222	 230.005000 	 
4.170657	 230.902000 	 
4.174092	 232.020000 	 
4.177527	 234.355000 	 
4.180962	 232.201000 	 
4.184397	 229.124000 	 
4.187832	 225.444000 	 
4.191268	 221.332000 	 
4.194703	 217.494000 	 
4.198138	 216.093000 	 
4.201573	 222.101000 	 
4.205008	 224.021000 	 
4.208443	 224.649000 	 
4.211878	 223.427000 	 
4.215313	 225.640000 	 
4.218749	 228.899000 	 
4.222184	 227.294000 	 
4.225619	 221.719000 	 
4.229054	 218.915000 	 
4.232489	 220.714000 	 
4.235924	 223.247000 	 
4.239359	 224.496000 	 
4.242794	 225.080000 	 
4.246229	 220.978000 	 
4.249664	 218.322000 	 
4.253099	 219.795000 	 
4.256535	 224.974000 	 
4.259970	 223.616000 	 
4.263405	 217.849000 	 
4.266840	 222.040000 	 
4.270275	 224.755000 	 
4.273710	 223.308000 	 
4.277145	 220.247000 	 
4.280581	 218.334000 	 
4.284016	 216.484000 	 
4.287451	 216.964000 	 
4.290886	 220.645000 	 
4.294321	 219.480000 	 
4.297756	 219.563000 	 
4.301191	 222.171000 	 
4.304627	 227.123000 	 
4.308062	 220.626000 	 
4.311497	 213.403000 	 
4.314932	 210.350000 	 
4.318367	 212.885000 	 
4.321802	 215.606000 	 
4.325237	 220.996000 	 
4.328672	 224.765000 	 
4.332108	 225.283000 	 
4.335543	 223.394000 	 
4.338978	 219.181000 	 
4.342413	 216.660000 	 
4.345848	 215.659000 	 
4.349283	 216.518000 	 
4.352718	 216.999000 	 
4.356153	 213.878000 	 
4.359589	 214.036000 	 
4.363023	 218.927000 	 
4.366458	 214.310000 	 
4.369894	 208.726000 	 
4.373329	 209.371000 	 
4.376764	 214.637000 	 
4.380199	 211.251000 	 
4.383634	 213.553000 	 
4.387069	 217.060000 	 
4.390504	 221.666000 	 
4.393940	 220.315000 	 
4.397375	 216.479000 	 
4.400810	 215.798000 	 
4.404245	 212.869000 	 
4.407680	 213.973000 	 
4.411115	 212.940000 	 
4.414550	 214.938000 	 
4.417985	 211.455000 	 
4.421421	 211.525000 	 
4.424856	 212.526000 	 
4.428291	 209.822000 	 
4.431726	 207.169000 	 
4.435161	 210.134000 	 
4.438596	 213.498000 	 
4.442031	 215.542000 	 
4.445467	 214.859000 	 
4.448902	 218.458000 	 
4.452337	 217.889000 	 
4.455772	 217.978000 	 
4.459207	 214.503000 	 
4.462642	 212.326000 	 
4.466077	 212.236000 	 
4.469513	 213.945000 	 
4.472948	 213.506000 	 
4.476383	 215.101000 	 
4.479818	 221.276000 	 
4.483252	 224.002000 	 
4.486688	 222.069000 	 
4.490123	 217.722000 	 
4.493558	 217.662000 	 
4.496993	 217.365000 	 
4.500428	 220.786000 	 
4.503863	 216.909000 	 
4.507299	 211.487000 	 
4.510734	 214.228000 	 
4.514169	 214.722000 	 
4.517604	 217.145000 	 
4.521039	 219.143000 	 
4.524474	 223.439000 	 
4.527909	 222.217000 	 
4.531344	 219.854000 	 
4.534780	 217.677000 	 
4.538215	 214.136000 	 
4.541650	 213.144000 	 
4.545085	 216.823000 	 
4.548520	 215.343000 	 
4.551955	 213.626000 	 
4.555390	 211.532000 	 
4.558826	 214.083000 	 
4.562261	 217.069000 	 
4.565696	 217.837000 	 
4.569131	 217.076000 	 
4.572566	 217.900000 	 
4.576001	 219.502000 	 
4.579436	 218.439000 	 
4.582871	 217.052000 	 
4.586307	 216.562000 	 
4.589742	 219.558000 	 
4.593177	 216.852000 	 
4.596612	 220.310000 	 
4.600047	 220.961000 	 
4.603482	 223.970000 	 
4.606917	 227.306000 	 
4.610352	 225.289000 	 
4.613787	 229.768000 	 
4.617222	 227.650000 	 
4.620657	 227.499000 	 
4.624093	 227.547000 	 
4.627528	 235.197000 	 
4.630963	 248.501000 	 
4.634398	 275.768000 	 
4.637833	 318.244000 	 
4.641268	 388.184000 	 
4.644703	 508.369000 	 
4.648139	 677.204000 	 
4.651574	 856.900000 	 
4.655009	 1010.220000 	 
4.658444	 1050.490000 	 
4.661879	 980.808000 	 
4.665314	 842.796000 	 
4.668749	 690.986000 	 
4.672185	 559.751000 	 
4.675620	 451.988000 	 
4.679055	 382.424000 	 
4.682490	 336.237000 	 
4.685925	 314.429000 	 
4.689360	 296.625000 	 
4.692795	 290.481000 	 
4.696230	 292.133000 	 
4.699666	 303.707000 	 
4.703101	 328.343000 	 
4.706536	 375.778000 	 
4.709971	 452.031000 	 
4.713406	 549.886000 	 
4.716841	 633.500000 	 
4.720276	 669.875000 	 
4.723711	 617.693000 	 
4.727146	 524.368000 	 
4.730581	 415.837000 	 
4.734016	 337.282000 	 
4.737452	 289.758000 	 
4.740887	 258.211000 	 
4.744322	 239.681000 	 
4.747757	 233.682000 	 
4.751192	 232.691000 	 
4.754627	 230.891000 	 
4.758062	 230.955000 	 
4.761497	 228.737000 	 
4.764933	 223.058000 	 
4.768368	 219.305000 	 
4.771803	 218.178000 	 
4.775238	 222.859000 	 
4.778673	 220.849000 	 
4.782108	 212.931000 	 
4.785543	 210.977000 	 
4.788979	 212.367000 	 
4.792414	 212.672000 	 
4.795849	 213.927000 	 
4.799284	 212.313000 	 
4.802719	 209.878000 	 
4.806154	 211.165000 	 
4.809589	 212.623000 	 
4.813025	 212.399000 	 
4.816460	 213.535000 	 
4.819895	 217.792000 	 
4.823330	 219.172000 	 
4.826765	 215.236000 	 
4.830200	 211.638000 	 
4.833635	 216.628000 	 
4.837071	 214.478000 	 
4.840506	 214.584000 	 
4.843940	 218.917000 	 
4.847375	 222.120000 	 
4.850810	 224.041000 	 
4.854246	 228.292000 	 
4.857681	 240.002000 	 
4.861116	 256.204000 	 
4.864551	 272.617000 	 
4.867986	 286.834000 	 
4.871421	 290.303000 	 
4.874856	 281.872000 	 
4.878292	 267.731000 	 
4.881727	 256.090000 	 
4.885162	 251.451000 	 
4.888597	 244.733000 	 
4.892032	 236.095000 	 
4.895467	 229.873000 	 
4.898902	 226.956000 	 
4.902338	 224.741000 	 
4.905773	 221.928000 	 
4.909208	 222.173000 	 
4.912643	 230.292000 	 
4.916078	 232.929000 	 
4.919513	 234.823000 	 
4.922948	 240.958000 	 
4.926384	 258.836000 	 
4.929819	 291.540000 	 
4.933254	 339.479000 	 
4.936689	 397.359000 	 
4.940124	 472.558000 	 
4.943559	 530.515000 	 
4.946994	 549.949000 	 
4.950429	 530.398000 	 
4.953865	 476.404000 	 
4.957300	 415.380000 	 
4.960735	 359.361000 	 
4.964169	 312.831000 	 
4.967605	 284.395000 	 
4.971040	 268.237000 	 
4.974475	 267.608000 	 
4.977910	 274.584000 	 
4.981345	 286.646000 	 
4.984780	 304.945000 	 
4.988215	 320.019000 	 
4.991651	 328.598000 	 
4.995086	 333.122000 	 
4.998521	 319.106000 	 
5.001956	 304.554000 	 
5.005391	 292.248000 	 
5.008826	 274.977000 	 
5.012261	 254.880000 	 
5.015696	 243.433000 	 
5.019132	 235.877000 	 
5.022567	 230.832000 	 
5.026002	 225.562000 	 
5.029437	 223.178000 	 
5.032872	 219.264000 	 
5.036307	 221.293000 	 
5.039743	 221.248000 	 
5.043178	 218.831000 	 
5.046613	 216.695000 	 
5.050048	 217.254000 	 
5.053483	 215.960000 	 
5.056918	 214.552000 	 
5.060353	 215.479000 	 
5.063788	 217.635000 	 
5.067223	 218.931000 	 
5.070659	 214.484000 	 
5.074094	 215.520000 	 
5.077529	 215.541000 	 
5.080964	 217.967000 	 
5.084399	 219.367000 	 
5.087834	 218.859000 	 
5.091269	 213.654000 	 
5.094704	 213.710000 	 
5.098139	 218.775000 	 
5.101574	 219.779000 	 
5.105010	 219.080000 	 
5.108445	 220.974000 	 
5.111880	 221.566000 	 
5.115315	 222.850000 	 
5.118750	 228.317000 	 
5.122185	 228.547000 	 
5.125620	 232.744000 	 
5.129055	 246.942000 	 
