1.010345	 215.784000 	 
1.013780	 214.075000 	 
1.017215	 217.074000 	 
1.020650	 217.792000 	 
1.024086	 226.447000 	 
1.027521	 226.936000 	 
1.030956	 222.280000 	 
1.034391	 225.155000 	 
1.037826	 225.503000 	 
1.041261	 231.336000 	 
1.044696	 233.282000 	 
1.048132	 233.219000 	 
1.051567	 230.114000 	 
1.055002	 225.963000 	 
1.058437	 224.848000 	 
1.061872	 217.947000 	 
1.065307	 220.330000 	 
1.068742	 222.954000 	 
1.072177	 228.024000 	 
1.075612	 233.153000 	 
1.079048	 220.764000 	 
1.082483	 222.641000 	 
1.085918	 224.356000 	 
1.089353	 228.928000 	 
1.092788	 230.588000 	 
1.096223	 231.071000 	 
1.099658	 216.955000 	 
1.103093	 214.651000 	 
1.106529	 218.928000 	 
1.109964	 229.258000 	 
1.113399	 222.116000 	 
1.116834	 219.060000 	 
1.120269	 228.908000 	 
1.123704	 229.930000 	 
1.127139	 224.837000 	 
1.130574	 224.767000 	 
1.134009	 225.928000 	 
1.137445	 232.058000 	 
1.140880	 229.274000 	 
1.144315	 224.098000 	 
1.147750	 216.547000 	 
1.151185	 210.365000 	 
1.154620	 209.231000 	 
1.158055	 216.465000 	 
1.161490	 217.020000 	 
1.164926	 217.910000 	 
1.168361	 228.293000 	 
1.171796	 222.134000 	 
1.175231	 217.676000 	 
1.178666	 216.149000 	 
1.182101	 217.459000 	 
1.185536	 222.497000 	 
1.188971	 225.654000 	 
1.192406	 223.406000 	 
1.195842	 223.341000 	 
1.199277	 216.424000 	 
1.202712	 219.355000 	 
1.206147	 224.867000 	 
1.209582	 222.617000 	 
1.213017	 223.802000 	 
1.216452	 217.249000 	 
1.219888	 203.947000 	 
1.223323	 204.566000 	 
1.226758	 208.947000 	 
1.230193	 209.565000 	 
1.233628	 218.091000 	 
1.237063	 219.841000 	 
1.240498	 224.336000 	 
1.243933	 227.903000 	 
1.247369	 225.126000 	 
1.250804	 221.747000 	 
1.254239	 218.905000 	 
1.257674	 226.604000 	 
1.261109	 234.574000 	 
1.264544	 226.267000 	 
1.267979	 228.498000 	 
1.271414	 222.471000 	 
1.274849	 223.895000 	 
1.278285	 221.625000 	 
1.281720	 212.135000 	 
1.285155	 210.078000 	 
1.288590	 212.663000 	 
1.292025	 211.413000 	 
1.295460	 212.544000 	 
1.298895	 217.794000 	 
1.302330	 226.174000 	 
1.305765	 234.340000 	 
1.309201	 236.580000 	 
1.312636	 231.158000 	 
1.316071	 225.642000 	 
1.319506	 221.555000 	 
1.322941	 222.608000 	 
1.326376	 225.977000 	 
1.329811	 229.807000 	 
1.333247	 227.293000 	 
1.336682	 223.124000 	 
1.340117	 220.321000 	 
1.343552	 218.662000 	 
1.346987	 218.652000 	 
1.350422	 216.730000 	 
1.353857	 210.957000 	 
1.357292	 208.841000 	 
1.360727	 215.216000 	 
1.364163	 228.623000 	 
1.367598	 219.737000 	 
1.371033	 216.926000 	 
1.374468	 214.310000 	 
1.377903	 218.520000 	 
1.381338	 223.853000 	 
1.384773	 217.377000 	 
1.388208	 216.691000 	 
1.391644	 221.255000 	 
1.395079	 218.932000 	 
1.398514	 212.541000 	 
1.401949	 213.794000 	 
1.405384	 213.659000 	 
1.408819	 217.117000 	 
1.412254	 219.121000 	 
1.415689	 214.059000 	 
1.419124	 213.376000 	 
1.422560	 212.638000 	 
1.425995	 223.323000 	 
1.429430	 228.535000 	 
1.432865	 225.847000 	 
1.436300	 219.700000 	 
1.439735	 208.175000 	 
1.443170	 214.245000 	 
1.446605	 231.307000 	 
1.450041	 232.665000 	 
1.453476	 227.325000 	 
1.456911	 216.803000 	 
1.460346	 214.707000 	 
1.463781	 217.241000 	 
1.467216	 221.160000 	 
1.470651	 213.668000 	 
1.474087	 215.795000 	 
1.477521	 227.427000 	 
1.480957	 225.830000 	 
1.484392	 224.307000 	 
1.487827	 220.098000 	 
1.491262	 212.865000 	 
1.494697	 218.219000 	 
1.498132	 222.062000 	 
1.501567	 224.870000 	 
1.505003	 227.517000 	 
1.508438	 228.081000 	 
1.511873	 227.199000 	 
1.515308	 228.189000 	 
1.518743	 231.347000 	 
1.522178	 227.784000 	 
1.525613	 219.224000 	 
1.529048	 223.478000 	 
1.532484	 229.559000 	 
1.535919	 235.175000 	 
1.539354	 231.519000 	 
1.542789	 227.044000 	 
1.546224	 226.439000 	 
1.549659	 226.820000 	 
1.553094	 231.339000 	 
1.556529	 232.857000 	 
1.559965	 230.651000 	 
1.563400	 227.249000 	 
1.566835	 229.238000 	 
1.570270	 233.855000 	 
1.573705	 228.784000 	 
1.577140	 230.130000 	 
1.580575	 234.232000 	 
1.584010	 236.089000 	 
1.587446	 243.977000 	 
1.590881	 250.605000 	 
1.594316	 251.257000 	 
1.597751	 254.191000 	 
1.601186	 257.201000 	 
1.604621	 278.974000 	 
1.608056	 331.628000 	 
1.611491	 482.221000 	 
1.614926	 765.925000 	 
1.618362	 1127.690000 	 
1.621797	 1469.010000 	 
1.625232	 1447.390000 	 
1.628667	 1214.440000 	 
1.632102	 840.672000 	 
1.635537	 629.028000 	 
1.638972	 493.085000 	 
1.642407	 426.590000 	 
1.645843	 405.704000 	 
1.649278	 413.373000 	 
1.652713	 459.200000 	 
1.656148	 579.378000 	 
1.659583	 784.586000 	 
1.663018	 1111.180000 	 
1.666453	 1307.260000 	 
1.669888	 1268.470000 	 
1.673324	 990.286000 	 
1.676759	 628.933000 	 
1.680194	 422.176000 	 
1.683629	 313.767000 	 
1.687064	 276.386000 	 
1.690499	 263.670000 	 
1.693934	 254.151000 	 
1.697369	 250.771000 	 
1.700805	 243.296000 	 
1.704240	 238.022000 	 
1.707675	 244.188000 	 
1.711110	 246.107000 	 
1.714545	 244.993000 	 
1.717980	 242.916000 	 
1.721415	 243.408000 	 
1.724850	 238.331000 	 
1.728285	 234.407000 	 
1.731721	 227.062000 	 
1.735156	 221.356000 	 
1.738591	 219.567000 	 
1.742026	 215.027000 	 
1.745461	 219.471000 	 
1.748896	 220.424000 	 
1.752331	 222.776000 	 
1.755766	 223.447000 	 
1.759202	 217.588000 	 
1.762637	 220.961000 	 
1.766072	 216.615000 	 
1.769507	 216.031000 	 
1.772942	 215.521000 	 
1.776377	 219.885000 	 
1.779812	 211.848000 	 
1.783247	 210.295000 	 
1.786683	 211.131000 	 
1.790118	 214.725000 	 
1.793553	 213.972000 	 
1.796988	 216.654000 	 
1.800423	 215.725000 	 
1.803858	 213.754000 	 
1.807293	 213.998000 	 
1.810728	 219.438000 	 
1.814163	 221.543000 	 
1.817599	 228.209000 	 
1.821034	 228.436000 	 
1.824469	 219.917000 	 
1.827904	 213.245000 	 
1.831339	 214.779000 	 
1.834774	 214.625000 	 
1.838209	 216.268000 	 
1.841644	 220.481000 	 
1.845080	 226.055000 	 
1.848515	 221.092000 	 
1.851950	 217.800000 	 
1.855385	 212.387000 	 
1.858820	 213.994000 	 
1.862255	 219.194000 	 
1.865690	 219.897000 	 
1.869125	 215.779000 	 
1.872561	 216.783000 	 
1.875996	 219.687000 	 
1.879431	 214.114000 	 
1.882866	 213.804000 	 
1.886301	 212.164000 	 
1.889736	 216.937000 	 
1.893171	 218.283000 	 
1.896606	 218.308000 	 
1.900041	 226.604000 	 
1.903477	 230.304000 	 
1.906912	 230.871000 	 
1.910347	 228.158000 	 
1.913782	 220.537000 	 
1.917217	 223.886000 	 
1.920652	 227.125000 	 
1.924087	 219.201000 	 
1.927523	 216.737000 	 
1.930958	 221.586000 	 
1.934393	 220.785000 	 
1.937828	 215.484000 	 
1.941263	 210.029000 	 
1.944698	 205.822000 	 
1.948133	 205.448000 	 
1.951568	 206.456000 	 
1.955003	 210.053000 	 
1.958439	 215.448000 	 
1.961874	 224.569000 	 
1.965309	 225.875000 	 
1.968744	 224.899000 	 
1.972179	 227.748000 	 
1.975614	 226.949000 	 
1.979049	 220.823000 	 
1.982485	 215.515000 	 
1.985920	 211.532000 	 
1.989355	 219.834000 	 
1.992790	 223.613000 	 
1.996225	 217.295000 	 
1.999660	 219.399000 	 
2.003095	 214.966000 	 
2.006530	 214.333000 	 
2.009965	 214.731000 	 
2.013401	 214.550000 	 
2.016836	 215.575000 	 
2.020271	 215.687000 	 
2.023706	 212.854000 	 
2.027141	 213.634000 	 
2.030576	 212.228000 	 
2.034011	 222.370000 	 
2.037446	 230.226000 	 
2.040881	 228.296000 	 
2.044316	 226.521000 	 
2.047752	 221.387000 	 
2.051187	 220.021000 	 
2.054622	 221.357000 	 
2.058057	 220.044000 	 
2.061492	 220.829000 	 
2.064927	 220.358000 	 
2.068363	 222.046000 	 
2.071798	 225.279000 	 
2.075233	 227.356000 	 
2.078668	 221.347000 	 
2.082103	 220.782000 	 
2.085538	 222.217000 	 
2.088973	 229.719000 	 
2.092408	 234.956000 	 
2.095843	 231.223000 	 
2.099279	 232.251000 	 
2.102714	 228.312000 	 
2.106149	 226.935000 	 
2.109584	 224.053000 	 
2.113019	 226.365000 	 
2.116454	 230.698000 	 
2.119889	 230.377000 	 
2.123324	 230.692000 	 
2.126759	 227.448000 	 
2.130195	 228.788000 	 
2.133630	 229.813000 	 
2.137065	 225.741000 	 
2.140500	 229.042000 	 
2.143935	 231.628000 	 
2.147370	 227.448000 	 
2.150806	 227.590000 	 
2.154241	 223.034000 	 
2.157675	 216.237000 	 
2.161111	 218.919000 	 
2.164546	 225.081000 	 
2.167981	 233.475000 	 
2.171416	 230.401000 	 
2.174851	 230.154000 	 
2.178286	 232.206000 	 
2.181721	 228.596000 	 
2.185157	 225.289000 	 
2.188592	 227.349000 	 
2.192027	 229.457000 	 
2.195462	 229.667000 	 
2.198897	 234.146000 	 
2.202332	 236.176000 	 
2.205767	 237.298000 	 
2.209203	 235.755000 	 
2.212638	 235.906000 	 
2.216073	 236.911000 	 
2.219508	 235.483000 	 
2.222943	 240.017000 	 
2.226378	 242.048000 	 
2.229813	 242.822000 	 
2.233248	 244.007000 	 
2.236683	 245.285000 	 
2.240118	 248.473000 	 
2.243554	 250.500000 	 
2.246989	 250.761000 	 
2.250424	 253.660000 	 
2.253859	 260.512000 	 
2.257294	 270.002000 	 
2.260729	 277.993000 	 
2.264164	 283.237000 	 
2.267600	 290.386000 	 
2.271035	 291.068000 	 
2.274470	 289.813000 	 
2.277905	 296.004000 	 
2.281340	 302.819000 	 
2.284775	 312.820000 	 
2.288210	 325.238000 	 
2.291645	 340.299000 	 
2.295080	 355.792000 	 
2.298516	 385.771000 	 
2.301951	 442.840000 	 
2.305386	 552.765000 	 
2.308821	 810.017000 	 
2.312256	 1546.530000 	 
2.315691	 3145.390000 	 
2.319126	 5683.250000 	 
2.322561	 8634.040000 	 
2.325997	 9470.960000 	 
2.329432	 8512.070000 	 
2.332867	 5874.220000 	 
2.336302	 3696.030000 	 
2.339737	 2302.490000 	 
2.343172	 1691.580000 	 
2.346607	 1676.670000 	 
2.350042	 2030.890000 	 
2.353477	 2639.450000 	 
2.356913	 3086.340000 	 
2.360348	 2957.430000 	 
2.363783	 2280.630000 	 
2.367218	 1437.720000 	 
2.370653	 886.356000 	 
2.374088	 569.964000 	 
2.377523	 425.985000 	 
2.380959	 365.514000 	 
2.384394	 335.858000 	 
2.387829	 323.374000 	 
2.391264	 306.622000 	 
2.394699	 294.947000 	 
2.398134	 285.524000 	 
2.401569	 274.408000 	 
2.405004	 265.582000 	 
2.408439	 265.541000 	 
2.411875	 256.507000 	 
2.415310	 250.041000 	 
2.418745	 253.034000 	 
2.422180	 250.620000 	 
2.425615	 246.717000 	 
2.429050	 246.768000 	 
2.432485	 241.671000 	 
2.435920	 234.328000 	 
2.439356	 231.283000 	 
2.442791	 231.674000 	 
2.446226	 232.340000 	 
2.449661	 237.320000 	 
2.453096	 233.397000 	 
2.456531	 230.535000 	 
2.459966	 227.479000 	 
2.463401	 233.872000 	 
2.466836	 237.242000 	 
2.470272	 241.248000 	 
2.473707	 236.040000 	 
2.477142	 226.019000 	 
2.480577	 222.287000 	 
2.484012	 219.964000 	 
2.487447	 223.928000 	 
2.490882	 224.338000 	 
2.494318	 227.426000 	 
2.497753	 229.487000 	 
2.501188	 226.429000 	 
2.504623	 213.707000 	 
2.508058	 210.254000 	 
2.511493	 212.602000 	 
2.514928	 213.949000 	 
2.518363	 211.534000 	 
2.521798	 217.046000 	 
2.525234	 219.553000 	 
2.528669	 217.320000 	 
2.532104	 216.962000 	 
2.535539	 216.015000 	 
2.538974	 221.083000 	 
2.542409	 221.234000 	 
2.545844	 219.620000 	 
2.549279	 217.650000 	 
2.552715	 219.543000 	 
2.556150	 216.966000 	 
2.559585	 212.112000 	 
2.563020	 207.604000 	 
2.566455	 206.416000 	 
2.569890	 210.748000 	 
2.573325	 208.397000 	 
2.576760	 204.256000 	 
2.580195	 210.623000 	 
2.583631	 213.498000 	 
2.587066	 211.601000 	 
2.590501	 205.730000 	 
2.593936	 204.935000 	 
2.597371	 204.533000 	 
2.600806	 206.166000 	 
2.604241	 205.041000 	 
2.607677	 206.774000 	 
2.611112	 204.893000 	 
2.614547	 202.269000 	 
2.617982	 203.635000 	 
2.621417	 207.674000 	 
2.624852	 206.208000 	 
2.628287	 204.321000 	 
2.631723	 206.347000 	 
2.635158	 212.790000 	 
2.638593	 211.340000 	 
2.642028	 209.898000 	 
2.645463	 209.447000 	 
2.648898	 209.069000 	 
2.652333	 209.099000 	 
2.655768	 213.751000 	 
2.659203	 209.865000 	 
2.662638	 209.840000 	 
2.666074	 208.687000 	 
2.669509	 210.486000 	 
2.672944	 210.707000 	 
2.676379	 213.921000 	 
2.679814	 212.086000 	 
2.683249	 203.980000 	 
2.686684	 201.443000 	 
2.690120	 208.973000 	 
2.693555	 208.801000 	 
2.696990	 206.507000 	 
2.700425	 204.092000 	 
2.703860	 204.561000 	 
2.707295	 206.404000 	 
2.710730	 206.247000 	 
2.714165	 203.687000 	 
2.717600	 203.186000 	 
2.721036	 207.656000 	 
2.724471	 210.217000 	 
2.727906	 205.255000 	 
2.731341	 205.428000 	 
2.734776	 211.697000 	 
2.738211	 214.340000 	 
2.741646	 206.507000 	 
2.745081	 199.627000 	 
2.748517	 201.681000 	 
2.751952	 204.176000 	 
2.755387	 208.959000 	 
2.758822	 209.814000 	 
2.762257	 202.710000 	 
2.765692	 201.799000 	 
2.769127	 207.440000 	 
2.772562	 208.118000 	 
2.775997	 204.176000 	 
2.779433	 203.234000 	 
2.782868	 202.458000 	 
2.786303	 205.374000 	 
2.789738	 207.960000 	 
2.793173	 205.664000 	 
2.796608	 207.402000 	 
2.800043	 209.400000 	 
2.803479	 211.527000 	 
2.806914	 214.758000 	 
2.810349	 213.083000 	 
2.813784	 215.545000 	 
2.817219	 213.160000 	 
2.820654	 214.585000 	 
2.824089	 219.126000 	 
2.827524	 224.762000 	 
2.830959	 235.460000 	 
2.834395	 249.881000 	 
2.837830	 272.532000 	 
2.841265	 314.455000 	 
2.844700	 412.343000 	 
2.848135	 613.183000 	 
2.851570	 995.838000 	 
2.855005	 1578.500000 	 
2.858440	 2060.450000 	 
2.861876	 2272.960000 	 
2.865311	 1922.870000 	 
2.868746	 1359.940000 	 
2.872181	 811.750000 	 
2.875616	 500.401000 	 
2.879051	 358.063000 	 
2.882486	 285.281000 	 
2.885921	 255.057000 	 
2.889356	 245.278000 	 
2.892792	 237.607000 	 
2.896227	 231.534000 	 
2.899662	 222.636000 	 
2.903097	 220.388000 	 
2.906532	 223.683000 	 
2.909967	 226.354000 	 
2.913402	 224.051000 	 
2.916838	 220.746000 	 
2.920273	 218.386000 	 
2.923708	 213.733000 	 
2.927143	 208.285000 	 
2.930578	 215.118000 	 
2.934013	 218.203000 	 
2.937448	 209.349000 	 
2.940883	 209.742000 	 
2.944318	 209.290000 	 
2.947753	 206.850000 	 
2.951189	 209.789000 	 
2.954624	 213.595000 	 
2.958059	 209.375000 	 
2.961494	 207.377000 	 
2.964929	 210.170000 	 
2.968364	 211.869000 	 
2.971799	 215.673000 	 
2.975235	 213.289000 	 
2.978670	 213.409000 	 
2.982105	 212.845000 	 
2.985540	 213.928000 	 
2.988975	 213.409000 	 
2.992410	 210.993000 	 
2.995845	 206.186000 	 
2.999280	 206.303000 	 
3.002715	 206.150000 	 
3.006150	 203.341000 	 
3.009586	 208.079000 	 
3.013021	 207.104000 	 
3.016456	 207.990000 	 
3.019891	 209.058000 	 
3.023326	 211.292000 	 
3.026761	 211.154000 	 
3.030196	 209.055000 	 
3.033632	 207.957000 	 
3.037067	 205.905000 	 
3.040502	 205.768000 	 
3.043937	 205.208000 	 
3.047372	 208.829000 	 
3.050807	 205.574000 	 
3.054242	 205.878000 	 
3.057678	 204.972000 	 
3.061113	 203.577000 	 
3.064548	 203.997000 	 
3.067983	 204.754000 	 
3.071418	 209.539000 	 
3.074853	 213.065000 	 
3.078288	 210.575000 	 
3.081723	 205.824000 	 
3.085158	 204.044000 	 
3.088594	 207.234000 	 
3.092029	 204.386000 	 
3.095464	 199.799000 	 
3.098899	 200.394000 	 
3.102334	 206.111000 	 
3.105769	 207.469000 	 
3.109204	 200.936000 	 
3.112639	 198.735000 	 
3.116075	 197.635000 	 
3.119510	 199.834000 	 
3.122945	 199.852000 	 
3.126380	 206.854000 	 
3.129815	 212.406000 	 
3.133250	 209.768000 	 
3.136685	 207.407000 	 
3.140120	 207.231000 	 
3.143555	 209.680000 	 
3.146990	 205.548000 	 
3.150426	 203.707000 	 
3.153861	 207.880000 	 
3.157296	 208.921000 	 
3.160731	 212.427000 	 
3.164166	 211.002000 	 
3.167601	 208.792000 	 
3.171037	 205.498000 	 
3.174472	 203.801000 	 
3.177907	 207.449000 	 
3.181342	 209.115000 	 
3.184777	 207.950000 	 
3.188212	 208.084000 	 
3.191647	 208.265000 	 
3.195082	 212.127000 	 
3.198517	 215.480000 	 
3.201953	 214.975000 	 
3.205388	 213.893000 	 
3.208823	 218.669000 	 
3.212258	 225.257000 	 
3.215693	 229.921000 	 
3.219128	 228.527000 	 
3.222563	 236.583000 	 
3.225998	 255.327000 	 
3.229433	 290.020000 	 
3.232869	 387.267000 	 
3.236304	 567.439000 	 
3.239739	 828.039000 	 
3.243174	 1112.700000 	 
3.246609	 1225.890000 	 
3.250044	 1174.810000 	 
3.253479	 960.545000 	 
3.256914	 755.950000 	 
3.260349	 585.114000 	 
3.263785	 464.490000 	 
3.267220	 392.182000 	 
3.270655	 343.198000 	 
3.274090	 320.174000 	 
3.277525	 308.786000 	 
3.280960	 297.746000 	 
3.284396	 286.911000 	 
3.287831	 285.912000 	 
3.291266	 285.232000 	 
3.294701	 285.640000 	 
3.298136	 285.988000 	 
3.301571	 285.654000 	 
3.305006	 292.494000 	 
3.308441	 302.010000 	 
3.311876	 315.666000 	 
3.315311	 343.782000 	 
3.318747	 404.373000 	 
3.322182	 516.878000 	 
3.325617	 707.139000 	 
3.329052	 1046.770000 	 
3.332487	 1410.420000 	 
3.335922	 1653.600000 	 
3.339357	 1625.870000 	 
3.342792	 1292.060000 	 
3.346228	 899.153000 	 
3.349663	 573.573000 	 
3.353098	 402.972000 	 
3.356533	 320.187000 	 
3.359968	 277.403000 	 
3.363403	 252.471000 	 
3.366838	 240.637000 	 
3.370273	 236.007000 	 
3.373709	 228.931000 	 
3.377144	 223.436000 	 
3.380579	 221.064000 	 
3.384014	 216.669000 	 
3.387449	 213.521000 	 
3.390884	 217.321000 	 
3.394319	 221.786000 	 
3.397754	 221.860000 	 
3.401190	 225.274000 	 
3.404625	 222.728000 	 
3.408060	 217.995000 	 
3.411495	 212.717000 	 
3.414930	 207.462000 	 
3.418365	 211.850000 	 
3.421800	 214.978000 	 
3.425235	 217.482000 	 
3.428670	 215.789000 	 
3.432106	 218.198000 	 
3.435541	 222.519000 	 
3.438976	 218.876000 	 
3.442411	 213.987000 	 
3.445846	 210.529000 	 
3.449281	 212.477000 	 
3.452716	 215.272000 	 
3.456151	 217.327000 	 
3.459587	 217.837000 	 
3.463022	 214.111000 	 
3.466457	 215.855000 	 
3.469892	 216.128000 	 
3.473327	 217.181000 	 
3.476762	 218.318000 	 
3.480197	 214.678000 	 
3.483633	 211.897000 	 
3.487068	 210.483000 	 
3.490503	 210.271000 	 
3.493938	 210.811000 	 
3.497373	 213.064000 	 
3.500808	 217.090000 	 
3.504243	 210.090000 	 
3.507678	 208.966000 	 
3.511113	 210.864000 	 
3.514549	 205.733000 	 
3.517984	 209.444000 	 
3.521419	 211.973000 	 
3.524854	 209.903000 	 
3.528289	 211.243000 	 
3.531724	 212.763000 	 
3.535159	 216.942000 	 
3.538594	 218.964000 	 
3.542030	 217.454000 	 
3.545465	 214.855000 	 
3.548900	 213.277000 	 
3.552335	 213.798000 	 
3.555770	 218.472000 	 
3.559205	 213.584000 	 
3.562640	 209.804000 	 
3.566075	 212.465000 	 
3.569510	 219.071000 	 
3.572946	 221.209000 	 
3.576381	 221.023000 	 
3.579816	 216.307000 	 
3.583251	 217.947000 	 
3.586686	 218.253000 	 
3.590121	 223.201000 	 
3.593556	 221.781000 	 
3.596992	 219.992000 	 
3.600427	 226.718000 	 
3.603862	 232.157000 	 
3.607297	 231.892000 	 
3.610732	 231.255000 	 
3.614167	 234.544000 	 
3.617602	 236.061000 	 
3.621037	 236.681000 	 
3.624472	 241.002000 	 
3.627908	 252.634000 	 
3.631343	 282.651000 	 
3.634778	 352.902000 	 
3.638213	 471.234000 	 
3.641648	 646.583000 	 
3.645083	 833.596000 	 
3.648518	 920.690000 	 
3.651953	 888.243000 	 
3.655389	 757.757000 	 
3.658824	 616.502000 	 
3.662259	 492.639000 	 
3.665694	 399.810000 	 
3.669129	 351.678000 	 
3.672564	 315.327000 	 
3.675999	 292.325000 	 
3.679434	 289.067000 	 
3.682869	 290.619000 	 
3.686305	 296.321000 	 
3.689740	 309.869000 	 
3.693175	 332.822000 	 
3.696610	 373.359000 	 
3.700045	 440.090000 	 
3.703480	 504.594000 	 
3.706915	 559.901000 	 
3.710351	 573.364000 	 
3.713786	 540.645000 	 
3.717221	 497.602000 	 
3.720656	 462.155000 	 
3.724091	 462.711000 	 
3.727526	 481.054000 	 
3.730961	 473.232000 	 
3.734396	 441.069000 	 
3.737831	 378.141000 	 
3.741267	 316.050000 	 
3.744702	 281.551000 	 
3.748137	 257.264000 	 
3.751572	 242.296000 	 
3.755007	 236.604000 	 
3.758442	 232.716000 	 
3.761877	 233.396000 	 
3.765312	 234.322000 	 
3.768748	 229.982000 	 
3.772183	 225.328000 	 
3.775618	 220.206000 	 
3.779053	 222.193000 	 
3.782488	 222.423000 	 
3.785923	 214.391000 	 
3.789358	 216.162000 	 
3.792793	 220.419000 	 
3.796228	 222.540000 	 
3.799663	 224.677000 	 
3.803099	 224.131000 	 
3.806534	 223.714000 	 
3.809969	 226.558000 	 
3.813404	 224.521000 	 
3.816839	 221.975000 	 
3.820274	 220.580000 	 
3.823710	 219.059000 	 
3.827145	 214.404000 	 
3.830580	 218.406000 	 
3.834015	 219.514000 	 
3.837450	 217.372000 	 
3.840885	 216.013000 	 
3.844320	 217.047000 	 
3.847755	 217.686000 	 
3.851190	 216.953000 	 
3.854626	 219.452000 	 
3.858061	 220.718000 	 
3.861496	 223.407000 	 
3.864931	 223.446000 	 
3.868366	 219.129000 	 
3.871801	 221.409000 	 
3.875236	 225.437000 	 
3.878671	 224.096000 	 
3.882106	 225.446000 	 
3.885542	 222.611000 	 
3.888977	 220.229000 	 
3.892412	 225.051000 	 
3.895847	 224.249000 	 
3.899282	 225.782000 	 
3.902717	 226.179000 	 
3.906153	 223.270000 	 
3.909587	 222.282000 	 
3.913022	 225.653000 	 
3.916458	 228.402000 	 
3.919893	 230.500000 	 
3.923328	 231.322000 	 
3.926763	 231.142000 	 
3.930198	 229.510000 	 
3.933633	 234.197000 	 
3.937069	 229.385000 	 
3.940504	 227.531000 	 
3.943939	 230.129000 	 
3.947374	 235.893000 	 
3.950809	 237.498000 	 
3.954244	 238.420000 	 
3.957679	 243.260000 	 
3.961114	 244.610000 	 
3.964549	 247.189000 	 
3.967984	 245.188000 	 
3.971420	 249.317000 	 
3.974855	 255.299000 	 
3.978290	 265.801000 	 
3.981725	 276.330000 	 
3.985160	 291.218000 	 
3.988595	 319.219000 	 
3.992030	 391.434000 	 
3.995465	 530.007000 	 
3.998901	 768.974000 	 
4.002336	 1144.070000 	 
4.005771	 1518.870000 	 
4.009206	 1789.940000 	 
4.012641	 1851.980000 	 
4.016076	 1656.030000 	 
4.019511	 1358.900000 	 
4.022946	 1049.700000 	 
4.026382	 818.451000 	 
4.029817	 677.798000 	 
4.033252	 586.694000 	 
4.036687	 558.378000 	 
4.040122	 563.695000 	 
4.043557	 594.024000 	 
4.046992	 686.759000 	 
4.050427	 842.737000 	 
4.053863	 1092.810000 	 
4.057298	 1500.800000 	 
4.060733	 1948.420000 	 
4.064168	 2305.770000 	 
4.067603	 2394.540000 	 
4.071038	 2132.150000 	 
4.074473	 1678.390000 	 
4.077909	 1162.750000 	 
4.081344	 780.788000 	 
4.084779	 537.783000 	 
4.088214	 397.144000 	 
4.091649	 329.722000 	 
4.095084	 303.067000 	 
4.098519	 290.959000 	 
4.101954	 281.125000 	 
4.105390	 274.953000 	 
4.108825	 269.497000 	 
4.112260	 262.344000 	 
4.115695	 257.722000 	 
4.119130	 251.770000 	 
4.122565	 246.794000 	 
4.126000	 244.117000 	 
4.129435	 239.073000 	 
4.132870	 235.220000 	 
4.136305	 233.957000 	 
4.139741	 238.163000 	 
4.143176	 236.616000 	 
4.146611	 236.015000 	 
4.150046	 234.594000 	 
4.153481	 232.121000 	 
4.156916	 231.311000 	 
4.160351	 231.940000 	 
4.163786	 230.485000 	 
4.167222	 230.266000 	 
4.170657	 228.819000 	 
4.174092	 224.535000 	 
4.177527	 224.008000 	 
4.180962	 221.976000 	 
4.184397	 222.940000 	 
4.187832	 222.127000 	 
4.191268	 219.097000 	 
4.194703	 220.089000 	 
4.198138	 224.613000 	 
4.201573	 222.056000 	 
4.205008	 218.430000 	 
4.208443	 219.662000 	 
4.211878	 220.069000 	 
4.215313	 220.444000 	 
4.218749	 218.190000 	 
4.222184	 215.656000 	 
4.225619	 217.809000 	 
4.229054	 221.087000 	 
4.232489	 221.061000 	 
4.235924	 218.337000 	 
4.239359	 214.146000 	 
4.242794	 216.713000 	 
4.246229	 219.885000 	 
4.249664	 219.308000 	 
4.253099	 220.526000 	 
4.256535	 219.640000 	 
4.259970	 219.949000 	 
4.263405	 221.573000 	 
4.266840	 223.096000 	 
4.270275	 221.753000 	 
4.273710	 219.351000 	 
4.277145	 219.402000 	 
4.280581	 220.468000 	 
4.284016	 216.505000 	 
4.287451	 217.088000 	 
4.290886	 217.745000 	 
4.294321	 220.471000 	 
4.297756	 213.947000 	 
4.301191	 208.801000 	 
4.304627	 209.034000 	 
4.308062	 213.431000 	 
4.311497	 216.753000 	 
4.314932	 215.184000 	 
4.318367	 214.020000 	 
4.321802	 218.045000 	 
4.325237	 219.168000 	 
4.328672	 215.379000 	 
4.332108	 212.820000 	 
4.335543	 211.002000 	 
4.338978	 214.227000 	 
4.342413	 212.926000 	 
4.345848	 212.137000 	 
4.349283	 210.097000 	 
4.352718	 212.931000 	 
4.356153	 213.382000 	 
4.359589	 216.835000 	 
4.363023	 220.621000 	 
4.366458	 217.096000 	 
4.369894	 215.758000 	 
4.373329	 215.890000 	 
4.376764	 217.854000 	 
4.380199	 215.153000 	 
4.383634	 214.305000 	 
4.387069	 219.459000 	 
4.390504	 222.157000 	 
4.393940	 221.551000 	 
4.397375	 219.610000 	 
4.400810	 218.138000 	 
4.404245	 218.828000 	 
4.407680	 222.598000 	 
4.411115	 224.518000 	 
4.414550	 222.614000 	 
4.417985	 218.957000 	 
4.421421	 214.524000 	 
4.424856	 211.573000 	 
4.428291	 212.872000 	 
4.431726	 213.487000 	 
4.435161	 213.477000 	 
4.438596	 212.119000 	 
4.442031	 214.590000 	 
4.445467	 214.562000 	 
4.448902	 216.440000 	 
4.452337	 218.775000 	 
4.455772	 218.545000 	 
4.459207	 215.052000 	 
4.462642	 212.004000 	 
4.466077	 211.784000 	 
4.469513	 210.174000 	 
4.472948	 210.441000 	 
4.476383	 209.365000 	 
4.479818	 209.970000 	 
4.483252	 212.589000 	 
4.486688	 216.112000 	 
4.490123	 219.282000 	 
4.493558	 221.668000 	 
4.496993	 219.998000 	 
4.500428	 217.632000 	 
4.503863	 211.323000 	 
4.507299	 205.990000 	 
4.510734	 205.479000 	 
4.514169	 210.522000 	 
4.517604	 214.378000 	 
4.521039	 217.409000 	 
4.524474	 219.185000 	 
4.527909	 217.411000 	 
4.531344	 219.055000 	 
4.534780	 219.449000 	 
4.538215	 216.888000 	 
4.541650	 216.299000 	 
4.545085	 216.384000 	 
4.548520	 221.934000 	 
4.551955	 220.154000 	 
4.555390	 214.214000 	 
4.558826	 211.407000 	 
4.562261	 210.298000 	 
4.565696	 213.932000 	 
4.569131	 216.007000 	 
4.572566	 220.289000 	 
4.576001	 220.468000 	 
4.579436	 219.887000 	 
4.582871	 217.432000 	 
4.586307	 219.855000 	 
4.589742	 221.022000 	 
4.593177	 220.902000 	 
4.596612	 219.207000 	 
4.600047	 218.370000 	 
4.603482	 221.933000 	 
4.606917	 225.751000 	 
4.610352	 227.068000 	 
4.613787	 229.480000 	 
4.617222	 231.920000 	 
4.620657	 232.524000 	 
4.624093	 241.554000 	 
4.627528	 255.967000 	 
4.630963	 281.431000 	 
4.634398	 333.469000 	 
4.637833	 427.783000 	 
4.641268	 573.429000 	 
4.644703	 786.343000 	 
4.648139	 989.798000 	 
4.651574	 1124.890000 	 
4.655009	 1146.220000 	 
4.658444	 1031.220000 	 
4.661879	 864.263000 	 
4.665314	 683.595000 	 
4.668749	 538.834000 	 
4.672185	 436.112000 	 
4.675620	 357.531000 	 
4.679055	 315.035000 	 
4.682490	 296.835000 	 
4.685925	 284.999000 	 
4.689360	 280.086000 	 
4.692795	 280.461000 	 
4.696230	 281.256000 	 
4.699666	 293.865000 	 
4.703101	 317.045000 	 
4.706536	 354.153000 	 
4.709971	 413.361000 	 
4.713406	 493.586000 	 
4.716841	 562.091000 	 
4.720276	 584.993000 	 
4.723711	 542.406000 	 
4.727146	 468.601000 	 
4.730581	 384.535000 	 
4.734016	 310.793000 	 
4.737452	 266.155000 	 
4.740887	 240.882000 	 
4.744322	 232.853000 	 
4.747757	 226.952000 	 
4.751192	 224.773000 	 
4.754627	 223.896000 	 
4.758062	 221.105000 	 
4.761497	 220.935000 	 
4.764933	 221.908000 	 
4.768368	 218.381000 	 
4.771803	 217.960000 	 
4.775238	 213.243000 	 
4.778673	 213.296000 	 
4.782108	 214.924000 	 
4.785543	 216.380000 	 
4.788979	 215.421000 	 
4.792414	 215.915000 	 
4.795849	 218.623000 	 
4.799284	 216.225000 	 
4.802719	 215.763000 	 
4.806154	 216.003000 	 
4.809589	 212.468000 	 
4.813025	 215.222000 	 
4.816460	 218.615000 	 
4.819895	 218.722000 	 
4.823330	 215.982000 	 
4.826765	 215.600000 	 
4.830200	 216.910000 	 
4.833635	 214.920000 	 
4.837071	 213.358000 	 
4.840506	 209.129000 	 
4.843940	 214.863000 	 
4.847375	 220.793000 	 
4.850810	 223.251000 	 
4.854246	 223.993000 	 
4.857681	 235.976000 	 
4.861116	 254.043000 	 
4.864551	 276.526000 	 
4.867986	 294.101000 	 
4.871421	 299.825000 	 
4.874856	 290.897000 	 
4.878292	 277.383000 	 
4.881727	 269.101000 	 
4.885162	 255.395000 	 
4.888597	 243.343000 	 
4.892032	 232.919000 	 
4.895467	 232.104000 	 
4.898902	 235.959000 	 
4.902338	 234.314000 	 
4.905773	 232.519000 	 
4.909208	 228.214000 	 
4.912643	 229.502000 	 
4.916078	 237.992000 	 
4.919513	 251.316000 	 
4.922948	 275.736000 	 
4.926384	 314.818000 	 
4.929819	 374.272000 	 
4.933254	 445.075000 	 
4.936689	 524.629000 	 
4.940124	 587.305000 	 
4.943559	 597.799000 	 
4.946994	 560.919000 	 
4.950429	 490.648000 	 
4.953865	 415.183000 	 
4.957300	 355.831000 	 
4.960735	 306.847000 	 
4.964169	 279.272000 	 
4.967605	 268.908000 	 
4.971040	 264.383000 	 
4.974475	 270.195000 	 
4.977910	 278.897000 	 
4.981345	 283.647000 	 
4.984780	 292.099000 	 
4.988215	 304.132000 	 
4.991651	 308.551000 	 
4.995086	 300.429000 	 
4.998521	 282.733000 	 
5.001956	 270.316000 	 
5.005391	 266.390000 	 
5.008826	 258.625000 	 
5.012261	 249.571000 	 
5.015696	 237.905000 	 
5.019132	 228.413000 	 
5.022567	 219.338000 	 
5.026002	 212.275000 	 
5.029437	 214.102000 	 
5.032872	 216.573000 	 
5.036307	 219.001000 	 
5.039743	 215.669000 	 
5.043178	 214.042000 	 
5.046613	 215.648000 	 
5.050048	 219.391000 	 
5.053483	 218.830000 	 
5.056918	 216.812000 	 
5.060353	 218.312000 	 
5.063788	 220.093000 	 
5.067223	 219.200000 	 
5.070659	 218.448000 	 
5.074094	 216.829000 	 
5.077529	 213.658000 	 
5.080964	 212.482000 	 
5.084399	 208.622000 	 
5.087834	 209.861000 	 
5.091269	 212.601000 	 
5.094704	 209.811000 	 
5.098139	 210.659000 	 
5.101574	 216.762000 	 
5.105010	 221.079000 	 
5.108445	 218.843000 	 
5.111880	 218.426000 	 
5.115315	 221.818000 	 
5.118750	 222.724000 	 
5.122185	 231.304000 	 
5.125620	 247.091000 	 
5.129055	 260.371000 	 
