1.010345	 236.512000 	 
1.013780	 231.956000 	 
1.017215	 235.738000 	 
1.020650	 231.617000 	 
1.024086	 229.105000 	 
1.027521	 230.609000 	 
1.030956	 233.823000 	 
1.034391	 232.251000 	 
1.037826	 224.228000 	 
1.041261	 222.714000 	 
1.044696	 222.466000 	 
1.048132	 233.182000 	 
1.051567	 233.708000 	 
1.055002	 223.820000 	 
1.058437	 214.249000 	 
1.061872	 217.422000 	 
1.065307	 221.618000 	 
1.068742	 224.699000 	 
1.072177	 213.830000 	 
1.075612	 221.862000 	 
1.079048	 225.194000 	 
1.082483	 223.315000 	 
1.085918	 223.663000 	 
1.089353	 222.296000 	 
1.092788	 223.497000 	 
1.096223	 229.584000 	 
1.099658	 233.592000 	 
1.103093	 243.144000 	 
1.106529	 233.879000 	 
1.109964	 219.759000 	 
1.113399	 217.604000 	 
1.116834	 231.512000 	 
1.120269	 234.161000 	 
1.123704	 230.284000 	 
1.127139	 222.175000 	 
1.130574	 217.768000 	 
1.134009	 221.798000 	 
1.137445	 225.491000 	 
1.140880	 225.716000 	 
1.144315	 220.608000 	 
1.147750	 224.913000 	 
1.151185	 213.489000 	 
1.154620	 203.580000 	 
1.158055	 215.066000 	 
1.161490	 225.225000 	 
1.164926	 234.477000 	 
1.168361	 222.343000 	 
1.171796	 221.483000 	 
1.175231	 219.621000 	 
1.178666	 212.039000 	 
1.182101	 207.725000 	 
1.185536	 212.868000 	 
1.188971	 206.621000 	 
1.192406	 210.343000 	 
1.195842	 213.510000 	 
1.199277	 213.283000 	 
1.202712	 213.598000 	 
1.206147	 213.378000 	 
1.209582	 211.964000 	 
1.213017	 215.009000 	 
1.216452	 220.449000 	 
1.219888	 223.471000 	 
1.223323	 210.066000 	 
1.226758	 216.038000 	 
1.230193	 218.280000 	 
1.233628	 210.954000 	 
1.237063	 212.417000 	 
1.240498	 215.901000 	 
1.243933	 221.999000 	 
1.247369	 219.896000 	 
1.250804	 227.309000 	 
1.254239	 232.734000 	 
1.257674	 224.538000 	 
1.261109	 217.608000 	 
1.264544	 217.489000 	 
1.267979	 224.281000 	 
1.271414	 228.307000 	 
1.274849	 219.536000 	 
1.278285	 213.656000 	 
1.281720	 215.937000 	 
1.285155	 229.328000 	 
1.288590	 240.699000 	 
1.292025	 241.761000 	 
1.295460	 233.561000 	 
1.298895	 221.185000 	 
1.302330	 215.968000 	 
1.305765	 214.591000 	 
1.309201	 204.097000 	 
1.312636	 203.491000 	 
1.316071	 211.982000 	 
1.319506	 219.296000 	 
1.322941	 225.711000 	 
1.326376	 224.020000 	 
1.329811	 225.123000 	 
1.333247	 229.282000 	 
1.336682	 227.689000 	 
1.340117	 229.224000 	 
1.343552	 231.154000 	 
1.346987	 223.447000 	 
1.350422	 219.486000 	 
1.353857	 222.673000 	 
1.357292	 226.996000 	 
1.360727	 218.791000 	 
1.364163	 224.833000 	 
1.367598	 225.325000 	 
1.371033	 225.404000 	 
1.374468	 224.622000 	 
1.377903	 216.692000 	 
1.381338	 209.802000 	 
1.384773	 215.526000 	 
1.388208	 216.860000 	 
1.391644	 217.053000 	 
1.395079	 215.954000 	 
1.398514	 221.623000 	 
1.401949	 223.896000 	 
1.405384	 219.405000 	 
1.408819	 220.863000 	 
1.412254	 223.878000 	 
1.415689	 222.491000 	 
1.419124	 217.273000 	 
1.422560	 217.102000 	 
1.425995	 224.410000 	 
1.429430	 225.311000 	 
1.432865	 219.674000 	 
1.436300	 208.493000 	 
1.439735	 211.320000 	 
1.443170	 216.709000 	 
1.446605	 219.935000 	 
1.450041	 221.373000 	 
1.453476	 222.936000 	 
1.456911	 218.203000 	 
1.460346	 215.875000 	 
1.463781	 216.404000 	 
1.467216	 212.062000 	 
1.470651	 213.070000 	 
1.474087	 221.794000 	 
1.477521	 229.265000 	 
1.480957	 229.522000 	 
1.484392	 220.734000 	 
1.487827	 218.963000 	 
1.491262	 216.875000 	 
1.494697	 216.066000 	 
1.498132	 216.930000 	 
1.501567	 223.699000 	 
1.505003	 224.395000 	 
1.508438	 218.924000 	 
1.511873	 207.376000 	 
1.515308	 209.484000 	 
1.518743	 212.051000 	 
1.522178	 214.011000 	 
1.525613	 216.803000 	 
1.529048	 219.158000 	 
1.532484	 225.607000 	 
1.535919	 228.570000 	 
1.539354	 225.770000 	 
1.542789	 222.710000 	 
1.546224	 218.705000 	 
1.549659	 224.166000 	 
1.553094	 228.486000 	 
1.556529	 225.376000 	 
1.559965	 232.135000 	 
1.563400	 233.104000 	 
1.566835	 232.880000 	 
1.570270	 237.333000 	 
1.573705	 235.301000 	 
1.577140	 234.495000 	 
1.580575	 235.962000 	 
1.584010	 245.763000 	 
1.587446	 240.008000 	 
1.590881	 241.715000 	 
1.594316	 245.418000 	 
1.597751	 251.735000 	 
1.601186	 273.122000 	 
1.604621	 296.037000 	 
1.608056	 351.262000 	 
1.611491	 489.303000 	 
1.614926	 753.043000 	 
1.618362	 1080.980000 	 
1.621797	 1369.140000 	 
1.625232	 1353.420000 	 
1.628667	 1152.630000 	 
1.632102	 802.529000 	 
1.635537	 610.062000 	 
1.638972	 481.675000 	 
1.642407	 428.652000 	 
1.645843	 414.551000 	 
1.649278	 425.753000 	 
1.652713	 465.386000 	 
1.656148	 605.768000 	 
1.659583	 867.636000 	 
1.663018	 1244.700000 	 
1.666453	 1466.830000 	 
1.669888	 1428.430000 	 
1.673324	 1096.420000 	 
1.676759	 687.416000 	 
1.680194	 452.932000 	 
1.683629	 334.347000 	 
1.687064	 291.584000 	 
1.690499	 269.602000 	 
1.693934	 255.572000 	 
1.697369	 249.188000 	 
1.700805	 247.200000 	 
1.704240	 251.511000 	 
1.707675	 250.844000 	 
1.711110	 242.470000 	 
1.714545	 232.485000 	 
1.717980	 231.499000 	 
1.721415	 230.852000 	 
1.724850	 230.229000 	 
1.728285	 230.281000 	 
1.731721	 227.865000 	 
1.735156	 221.230000 	 
1.738591	 222.237000 	 
1.742026	 223.948000 	 
1.745461	 218.416000 	 
1.748896	 214.806000 	 
1.752331	 213.559000 	 
1.755766	 212.904000 	 
1.759202	 215.722000 	 
1.762637	 216.025000 	 
1.766072	 213.018000 	 
1.769507	 211.315000 	 
1.772942	 217.051000 	 
1.776377	 222.808000 	 
1.779812	 218.478000 	 
1.783247	 209.492000 	 
1.786683	 216.559000 	 
1.790118	 216.892000 	 
1.793553	 211.109000 	 
1.796988	 213.786000 	 
1.800423	 220.435000 	 
1.803858	 227.984000 	 
1.807293	 228.788000 	 
1.810728	 225.994000 	 
1.814163	 224.189000 	 
1.817599	 227.039000 	 
1.821034	 223.923000 	 
1.824469	 225.204000 	 
1.827904	 222.506000 	 
1.831339	 216.021000 	 
1.834774	 209.919000 	 
1.838209	 216.251000 	 
1.841644	 220.504000 	 
1.845080	 217.672000 	 
1.848515	 214.072000 	 
1.851950	 215.205000 	 
1.855385	 216.249000 	 
1.858820	 216.404000 	 
1.862255	 219.584000 	 
1.865690	 221.529000 	 
1.869125	 215.377000 	 
1.872561	 217.834000 	 
1.875996	 218.102000 	 
1.879431	 218.508000 	 
1.882866	 217.121000 	 
1.886301	 211.930000 	 
1.889736	 213.102000 	 
1.893171	 213.854000 	 
1.896606	 212.621000 	 
1.900041	 207.204000 	 
1.903477	 205.695000 	 
1.906912	 209.462000 	 
1.910347	 212.413000 	 
1.913782	 213.110000 	 
1.917217	 217.275000 	 
1.920652	 223.704000 	 
1.924087	 225.761000 	 
1.927523	 219.553000 	 
1.930958	 212.648000 	 
1.934393	 213.975000 	 
1.937828	 225.800000 	 
1.941263	 230.670000 	 
1.944698	 229.034000 	 
1.948133	 228.709000 	 
1.951568	 227.990000 	 
1.955003	 222.247000 	 
1.958439	 222.755000 	 
1.961874	 220.041000 	 
1.965309	 208.313000 	 
1.968744	 213.319000 	 
1.972179	 221.202000 	 
1.975614	 223.487000 	 
1.979049	 226.191000 	 
1.982485	 223.845000 	 
1.985920	 221.415000 	 
1.989355	 211.670000 	 
1.992790	 209.248000 	 
1.996225	 215.516000 	 
1.999660	 217.541000 	 
2.003095	 212.470000 	 
2.006530	 221.430000 	 
2.009965	 228.750000 	 
2.013401	 227.811000 	 
2.016836	 220.390000 	 
2.020271	 219.953000 	 
2.023706	 221.689000 	 
2.027141	 224.217000 	 
2.030576	 231.132000 	 
2.034011	 230.345000 	 
2.037446	 230.936000 	 
2.040881	 227.817000 	 
2.044316	 217.691000 	 
2.047752	 211.921000 	 
2.051187	 212.657000 	 
2.054622	 216.808000 	 
2.058057	 218.496000 	 
2.061492	 220.066000 	 
2.064927	 214.573000 	 
2.068363	 212.566000 	 
2.071798	 214.006000 	 
2.075233	 218.309000 	 
2.078668	 220.087000 	 
2.082103	 223.560000 	 
2.085538	 226.747000 	 
2.088973	 230.275000 	 
2.092408	 220.892000 	 
2.095843	 221.944000 	 
2.099279	 223.708000 	 
2.102714	 221.613000 	 
2.106149	 219.959000 	 
2.109584	 224.153000 	 
2.113019	 228.004000 	 
2.116454	 233.406000 	 
2.119889	 240.528000 	 
2.123324	 234.672000 	 
2.126759	 223.573000 	 
2.130195	 212.518000 	 
2.133630	 214.576000 	 
2.137065	 218.767000 	 
2.140500	 223.650000 	 
2.143935	 223.876000 	 
2.147370	 230.822000 	 
2.150806	 233.274000 	 
2.154241	 233.385000 	 
2.157675	 232.770000 	 
2.161111	 229.422000 	 
2.164546	 229.531000 	 
2.167981	 230.042000 	 
2.171416	 225.239000 	 
2.174851	 229.041000 	 
2.178286	 226.091000 	 
2.181721	 219.450000 	 
2.185157	 222.448000 	 
2.188592	 224.504000 	 
2.192027	 222.264000 	 
2.195462	 229.285000 	 
2.198897	 236.513000 	 
2.202332	 238.616000 	 
2.205767	 241.476000 	 
2.209203	 236.293000 	 
2.212638	 235.905000 	 
2.216073	 238.532000 	 
2.219508	 236.659000 	 
2.222943	 237.196000 	 
2.226378	 241.611000 	 
2.229813	 243.868000 	 
2.233248	 246.474000 	 
2.236683	 245.967000 	 
2.240118	 245.057000 	 
2.243554	 247.723000 	 
2.246989	 256.056000 	 
2.250424	 259.678000 	 
2.253859	 264.316000 	 
2.257294	 269.086000 	 
2.260729	 273.776000 	 
2.264164	 279.861000 	 
2.267600	 287.354000 	 
2.271035	 292.387000 	 
2.274470	 297.702000 	 
2.277905	 298.604000 	 
2.281340	 309.194000 	 
2.284775	 316.508000 	 
2.288210	 317.840000 	 
2.291645	 323.502000 	 
2.295080	 344.184000 	 
2.298516	 380.328000 	 
2.301951	 429.310000 	 
2.305386	 507.596000 	 
2.308821	 683.598000 	 
2.312256	 1191.670000 	 
2.315691	 2379.190000 	 
2.319126	 4516.350000 	 
2.322561	 7481.260000 	 
2.325997	 8960.660000 	 
2.329432	 8701.690000 	 
2.332867	 6487.370000 	 
2.336302	 4234.500000 	 
2.339737	 2650.080000 	 
2.343172	 1881.660000 	 
2.346607	 1806.940000 	 
2.350042	 2180.050000 	 
2.353477	 2883.570000 	 
2.356913	 3418.570000 	 
2.360348	 3305.070000 	 
2.363783	 2586.190000 	 
2.367218	 1616.440000 	 
2.370653	 968.786000 	 
2.374088	 612.548000 	 
2.377523	 453.157000 	 
2.380959	 379.923000 	 
2.384394	 338.771000 	 
2.387829	 315.305000 	 
2.391264	 307.432000 	 
2.394699	 305.572000 	 
2.398134	 299.705000 	 
2.401569	 289.446000 	 
2.405004	 281.032000 	 
2.408439	 269.111000 	 
2.411875	 270.000000 	 
2.415310	 270.064000 	 
2.418745	 264.870000 	 
2.422180	 256.617000 	 
2.425615	 250.572000 	 
2.429050	 252.113000 	 
2.432485	 247.526000 	 
2.435920	 242.169000 	 
2.439356	 240.841000 	 
2.442791	 234.534000 	 
2.446226	 232.310000 	 
2.449661	 229.693000 	 
2.453096	 226.408000 	 
2.456531	 226.993000 	 
2.459966	 229.708000 	 
2.463401	 235.237000 	 
2.466836	 236.043000 	 
2.470272	 230.707000 	 
2.473707	 229.773000 	 
2.477142	 233.026000 	 
2.480577	 231.627000 	 
2.484012	 233.707000 	 
2.487447	 234.246000 	 
2.490882	 231.778000 	 
2.494318	 226.569000 	 
2.497753	 225.884000 	 
2.501188	 225.094000 	 
2.504623	 225.328000 	 
2.508058	 223.708000 	 
2.511493	 224.446000 	 
2.514928	 220.219000 	 
2.518363	 218.598000 	 
2.521798	 219.090000 	 
2.525234	 219.721000 	 
2.528669	 213.337000 	 
2.532104	 213.779000 	 
2.535539	 212.846000 	 
2.538974	 211.508000 	 
2.542409	 213.861000 	 
2.545844	 213.668000 	 
2.549279	 212.333000 	 
2.552715	 211.267000 	 
2.556150	 210.231000 	 
2.559585	 219.534000 	 
2.563020	 221.954000 	 
2.566455	 221.379000 	 
2.569890	 218.646000 	 
2.573325	 212.751000 	 
2.576760	 210.463000 	 
2.580195	 208.647000 	 
2.583631	 208.358000 	 
2.587066	 210.551000 	 
2.590501	 215.606000 	 
2.593936	 213.489000 	 
2.597371	 211.428000 	 
2.600806	 212.448000 	 
2.604241	 213.011000 	 
2.607677	 209.866000 	 
2.611112	 210.437000 	 
2.614547	 206.189000 	 
2.617982	 209.354000 	 
2.621417	 208.316000 	 
2.624852	 211.939000 	 
2.628287	 213.113000 	 
2.631723	 211.037000 	 
2.635158	 210.344000 	 
2.638593	 213.551000 	 
2.642028	 213.998000 	 
2.645463	 214.764000 	 
2.648898	 212.480000 	 
2.652333	 207.811000 	 
2.655768	 200.196000 	 
2.659203	 201.647000 	 
2.662638	 209.197000 	 
2.666074	 215.267000 	 
2.669509	 209.369000 	 
2.672944	 206.641000 	 
2.676379	 204.145000 	 
2.679814	 203.336000 	 
2.683249	 204.538000 	 
2.686684	 202.229000 	 
2.690120	 201.288000 	 
2.693555	 207.186000 	 
2.696990	 213.683000 	 
2.700425	 212.497000 	 
2.703860	 213.530000 	 
2.707295	 209.499000 	 
2.710730	 202.398000 	 
2.714165	 200.891000 	 
2.717600	 203.952000 	 
2.721036	 207.389000 	 
2.724471	 209.756000 	 
2.727906	 207.762000 	 
2.731341	 207.476000 	 
2.734776	 208.168000 	 
2.738211	 207.043000 	 
2.741646	 207.405000 	 
2.745081	 206.568000 	 
2.748517	 209.624000 	 
2.751952	 208.760000 	 
2.755387	 206.886000 	 
2.758822	 208.448000 	 
2.762257	 205.078000 	 
2.765692	 202.397000 	 
2.769127	 202.269000 	 
2.772562	 204.619000 	 
2.775997	 211.340000 	 
2.779433	 213.228000 	 
2.782868	 217.838000 	 
2.786303	 220.010000 	 
2.789738	 215.706000 	 
2.793173	 214.446000 	 
2.796608	 216.477000 	 
2.800043	 221.041000 	 
2.803479	 222.057000 	 
2.806914	 221.459000 	 
2.810349	 218.222000 	 
2.813784	 217.966000 	 
2.817219	 215.457000 	 
2.820654	 215.037000 	 
2.824089	 215.507000 	 
2.827524	 219.214000 	 
2.830959	 226.474000 	 
2.834395	 237.198000 	 
2.837830	 255.706000 	 
2.841265	 278.596000 	 
2.844700	 334.312000 	 
2.848135	 465.167000 	 
2.851570	 760.421000 	 
2.855005	 1295.620000 	 
2.858440	 1850.440000 	 
2.861876	 2270.010000 	 
2.865311	 2111.690000 	 
2.868746	 1607.800000 	 
2.872181	 1003.770000 	 
2.875616	 596.129000 	 
2.879051	 395.281000 	 
2.882486	 299.439000 	 
2.885921	 257.068000 	 
2.889356	 246.565000 	 
2.892792	 238.244000 	 
2.896227	 236.897000 	 
2.899662	 236.216000 	 
2.903097	 232.438000 	 
2.906532	 227.259000 	 
2.909967	 224.596000 	 
2.913402	 218.143000 	 
2.916838	 216.526000 	 
2.920273	 217.117000 	 
2.923708	 218.285000 	 
2.927143	 218.942000 	 
2.930578	 219.629000 	 
2.934013	 218.079000 	 
2.937448	 217.374000 	 
2.940883	 211.171000 	 
2.944318	 206.886000 	 
2.947753	 210.046000 	 
2.951189	 216.010000 	 
2.954624	 216.281000 	 
2.958059	 214.868000 	 
2.961494	 216.207000 	 
2.964929	 211.751000 	 
2.968364	 209.753000 	 
2.971799	 210.120000 	 
2.975235	 210.396000 	 
2.978670	 210.398000 	 
2.982105	 215.000000 	 
2.985540	 219.287000 	 
2.988975	 213.634000 	 
2.992410	 208.387000 	 
2.995845	 207.501000 	 
2.999280	 205.266000 	 
3.002715	 202.629000 	 
3.006150	 202.268000 	 
3.009586	 206.853000 	 
3.013021	 210.095000 	 
3.016456	 210.536000 	 
3.019891	 207.309000 	 
3.023326	 209.805000 	 
3.026761	 208.739000 	 
3.030196	 207.304000 	 
3.033632	 206.321000 	 
3.037067	 207.371000 	 
3.040502	 207.434000 	 
3.043937	 203.143000 	 
3.047372	 202.410000 	 
3.050807	 207.079000 	 
3.054242	 206.490000 	 
3.057678	 206.748000 	 
3.061113	 205.588000 	 
3.064548	 207.053000 	 
3.067983	 207.347000 	 
3.071418	 212.195000 	 
3.074853	 212.435000 	 
3.078288	 210.857000 	 
3.081723	 205.469000 	 
3.085158	 205.689000 	 
3.088594	 205.922000 	 
3.092029	 207.285000 	 
3.095464	 207.573000 	 
3.098899	 205.488000 	 
3.102334	 198.886000 	 
3.105769	 200.447000 	 
3.109204	 204.004000 	 
3.112639	 203.211000 	 
3.116075	 202.586000 	 
3.119510	 199.669000 	 
3.122945	 201.603000 	 
3.126380	 205.540000 	 
3.129815	 209.986000 	 
3.133250	 209.812000 	 
3.136685	 210.106000 	 
3.140120	 210.591000 	 
3.143555	 210.760000 	 
3.146990	 210.276000 	 
3.150426	 217.402000 	 
3.153861	 221.754000 	 
3.157296	 216.794000 	 
3.160731	 214.710000 	 
3.164166	 209.666000 	 
3.167601	 209.468000 	 
3.171037	 215.710000 	 
3.174472	 216.045000 	 
3.177907	 215.825000 	 
3.181342	 215.297000 	 
3.184777	 213.430000 	 
3.188212	 211.930000 	 
3.191647	 214.434000 	 
3.195082	 216.236000 	 
3.198517	 210.139000 	 
3.201953	 209.758000 	 
3.205388	 214.658000 	 
3.208823	 222.400000 	 
3.212258	 228.731000 	 
3.215693	 232.854000 	 
3.219128	 235.991000 	 
3.222563	 243.938000 	 
3.225998	 258.395000 	 
3.229433	 291.581000 	 
3.232869	 384.888000 	 
3.236304	 546.728000 	 
3.239739	 771.287000 	 
3.243174	 1011.190000 	 
3.246609	 1099.570000 	 
3.250044	 1045.640000 	 
3.253479	 843.957000 	 
3.256914	 669.573000 	 
3.260349	 519.888000 	 
3.263785	 417.984000 	 
3.267220	 359.285000 	 
3.270655	 327.238000 	 
3.274090	 310.782000 	 
3.277525	 298.538000 	 
3.280960	 284.945000 	 
3.284396	 284.921000 	 
3.287831	 280.584000 	 
3.291266	 277.695000 	 
3.294701	 282.092000 	 
3.298136	 284.411000 	 
3.301571	 289.032000 	 
3.305006	 293.657000 	 
3.308441	 306.550000 	 
3.311876	 319.927000 	 
3.315311	 353.373000 	 
3.318747	 427.222000 	 
3.322182	 553.478000 	 
3.325617	 761.422000 	 
3.329052	 1141.030000 	 
3.332487	 1522.190000 	 
3.335922	 1780.620000 	 
3.339357	 1725.080000 	 
3.342792	 1336.890000 	 
3.346228	 909.464000 	 
3.349663	 572.261000 	 
3.353098	 394.727000 	 
3.356533	 310.685000 	 
3.359968	 272.725000 	 
3.363403	 248.496000 	 
3.366838	 240.054000 	 
3.370273	 236.343000 	 
3.373709	 238.710000 	 
3.377144	 234.815000 	 
3.380579	 237.554000 	 
3.384014	 235.164000 	 
3.387449	 232.040000 	 
3.390884	 228.450000 	 
3.394319	 226.579000 	 
3.397754	 221.335000 	 
3.401190	 221.109000 	 
3.404625	 220.273000 	 
3.408060	 217.229000 	 
3.411495	 213.998000 	 
3.414930	 214.064000 	 
3.418365	 212.709000 	 
3.421800	 211.187000 	 
3.425235	 213.065000 	 
3.428670	 206.740000 	 
3.432106	 205.418000 	 
3.435541	 213.037000 	 
3.438976	 217.951000 	 
3.442411	 215.721000 	 
3.445846	 211.494000 	 
3.449281	 216.111000 	 
3.452716	 216.187000 	 
3.456151	 217.365000 	 
3.459587	 217.159000 	 
3.463022	 212.480000 	 
3.466457	 209.400000 	 
3.469892	 212.532000 	 
3.473327	 211.856000 	 
3.476762	 211.212000 	 
3.480197	 214.006000 	 
3.483633	 212.933000 	 
3.487068	 210.656000 	 
3.490503	 210.094000 	 
3.493938	 208.898000 	 
3.497373	 206.654000 	 
3.500808	 203.958000 	 
3.504243	 207.594000 	 
3.507678	 209.902000 	 
3.511113	 211.919000 	 
3.514549	 212.798000 	 
3.517984	 210.559000 	 
3.521419	 209.547000 	 
3.524854	 211.048000 	 
3.528289	 212.337000 	 
3.531724	 215.371000 	 
3.535159	 216.716000 	 
3.538594	 213.437000 	 
3.542030	 212.151000 	 
3.545465	 215.086000 	 
3.548900	 218.232000 	 
3.552335	 214.331000 	 
3.555770	 208.961000 	 
3.559205	 209.321000 	 
3.562640	 211.527000 	 
3.566075	 212.122000 	 
3.569510	 209.976000 	 
3.572946	 210.401000 	 
3.576381	 214.323000 	 
3.579816	 214.027000 	 
3.583251	 216.455000 	 
3.586686	 217.279000 	 
3.590121	 219.487000 	 
3.593556	 217.597000 	 
3.596992	 217.771000 	 
3.600427	 218.244000 	 
3.603862	 223.781000 	 
3.607297	 227.520000 	 
3.610732	 228.724000 	 
3.614167	 230.545000 	 
3.617602	 231.055000 	 
3.621037	 228.833000 	 
3.624472	 237.654000 	 
3.627908	 253.014000 	 
3.631343	 282.859000 	 
3.634778	 344.934000 	 
3.638213	 452.431000 	 
3.641648	 606.895000 	 
3.645083	 777.730000 	 
3.648518	 878.166000 	 
3.651953	 868.811000 	 
3.655389	 744.736000 	 
3.658824	 612.424000 	 
3.662259	 495.261000 	 
3.665694	 410.386000 	 
3.669129	 353.551000 	 
3.672564	 316.389000 	 
3.675999	 294.514000 	 
3.679434	 285.370000 	 
3.682869	 288.320000 	 
3.686305	 287.468000 	 
3.689740	 302.959000 	 
3.693175	 327.100000 	 
3.696610	 360.730000 	 
3.700045	 416.134000 	 
3.703480	 479.795000 	 
3.706915	 552.349000 	 
3.710351	 597.394000 	 
3.713786	 587.694000 	 
3.717221	 540.941000 	 
3.720656	 498.744000 	 
3.724091	 501.194000 	 
3.727526	 518.891000 	 
3.730961	 510.315000 	 
3.734396	 468.920000 	 
3.737831	 401.899000 	 
3.741267	 329.228000 	 
3.744702	 284.199000 	 
3.748137	 257.874000 	 
3.751572	 243.372000 	 
3.755007	 239.137000 	 
3.758442	 237.275000 	 
3.761877	 235.998000 	 
3.765312	 230.888000 	 
3.768748	 230.324000 	 
3.772183	 228.699000 	 
3.775618	 228.170000 	 
3.779053	 227.057000 	 
3.782488	 229.196000 	 
3.785923	 225.595000 	 
3.789358	 224.775000 	 
3.792793	 220.286000 	 
3.796228	 219.086000 	 
3.799663	 222.341000 	 
3.803099	 223.901000 	 
3.806534	 222.547000 	 
3.809969	 220.458000 	 
3.813404	 219.268000 	 
3.816839	 218.664000 	 
3.820274	 220.298000 	 
3.823710	 227.598000 	 
3.827145	 224.937000 	 
3.830580	 221.017000 	 
3.834015	 219.341000 	 
3.837450	 222.716000 	 
3.840885	 228.680000 	 
3.844320	 225.202000 	 
3.847755	 222.777000 	 
3.851190	 224.048000 	 
3.854626	 226.217000 	 
3.858061	 221.982000 	 
3.861496	 220.752000 	 
3.864931	 218.937000 	 
3.868366	 218.035000 	 
3.871801	 220.893000 	 
3.875236	 219.872000 	 
3.878671	 221.159000 	 
3.882106	 219.341000 	 
3.885542	 217.939000 	 
3.888977	 219.862000 	 
3.892412	 222.422000 	 
3.895847	 224.949000 	 
3.899282	 222.513000 	 
3.902717	 222.254000 	 
3.906153	 225.050000 	 
3.909587	 222.539000 	 
3.913022	 221.565000 	 
3.916458	 224.285000 	 
3.919893	 230.953000 	 
3.923328	 236.714000 	 
3.926763	 238.490000 	 
3.930198	 236.108000 	 
3.933633	 234.025000 	 
3.937069	 239.478000 	 
3.940504	 236.791000 	 
3.943939	 234.698000 	 
3.947374	 240.386000 	 
3.950809	 241.571000 	 
3.954244	 239.016000 	 
3.957679	 243.980000 	 
3.961114	 244.860000 	 
3.964549	 244.467000 	 
3.967984	 244.733000 	 
3.971420	 247.506000 	 
3.974855	 253.028000 	 
3.978290	 256.333000 	 
3.981725	 264.558000 	 
3.985160	 274.880000 	 
3.988595	 293.959000 	 
3.992030	 340.333000 	 
3.995465	 429.312000 	 
3.998901	 594.480000 	 
4.002336	 884.287000 	 
4.005771	 1248.510000 	 
4.009206	 1568.360000 	 
4.012641	 1743.390000 	 
4.016076	 1643.040000 	 
4.019511	 1397.300000 	 
4.022946	 1110.560000 	 
4.026382	 873.270000 	 
4.029817	 706.524000 	 
4.033252	 593.678000 	 
4.036687	 540.501000 	 
4.040122	 531.345000 	 
4.043557	 549.195000 	 
4.046992	 613.266000 	 
4.050427	 736.187000 	 
4.053863	 948.904000 	 
4.057298	 1349.190000 	 
4.060733	 1875.520000 	 
4.064168	 2404.850000 	 
4.067603	 2711.500000 	 
4.071038	 2539.140000 	 
4.074473	 2053.420000 	 
4.077909	 1433.960000 	 
4.081344	 939.312000 	 
4.084779	 616.434000 	 
4.088214	 434.830000 	 
4.091649	 356.099000 	 
4.095084	 313.819000 	 
4.098519	 286.835000 	 
4.101954	 279.744000 	 
4.105390	 270.951000 	 
4.108825	 261.526000 	 
4.112260	 252.868000 	 
4.115695	 246.527000 	 
4.119130	 247.091000 	 
4.122565	 247.230000 	 
4.126000	 246.532000 	 
4.129435	 245.268000 	 
4.132870	 244.970000 	 
4.136305	 242.983000 	 
4.139741	 241.382000 	 
4.143176	 236.916000 	 
4.146611	 236.008000 	 
4.150046	 236.780000 	 
4.153481	 234.729000 	 
4.156916	 235.315000 	 
4.160351	 235.923000 	 
4.163786	 234.926000 	 
4.167222	 230.345000 	 
4.170657	 229.039000 	 
4.174092	 228.403000 	 
4.177527	 228.754000 	 
4.180962	 221.027000 	 
4.184397	 222.351000 	 
4.187832	 222.786000 	 
4.191268	 223.202000 	 
4.194703	 218.816000 	 
4.198138	 218.133000 	 
4.201573	 222.933000 	 
4.205008	 224.077000 	 
4.208443	 221.145000 	 
4.211878	 221.286000 	 
4.215313	 224.410000 	 
4.218749	 226.045000 	 
4.222184	 224.710000 	 
4.225619	 220.989000 	 
4.229054	 223.242000 	 
4.232489	 221.651000 	 
4.235924	 223.476000 	 
4.239359	 225.908000 	 
4.242794	 225.753000 	 
4.246229	 224.751000 	 
4.249664	 222.583000 	 
4.253099	 220.860000 	 
4.256535	 219.535000 	 
4.259970	 214.816000 	 
4.263405	 218.905000 	 
4.266840	 216.635000 	 
4.270275	 217.307000 	 
4.273710	 217.079000 	 
4.277145	 219.321000 	 
4.280581	 219.589000 	 
4.284016	 220.683000 	 
4.287451	 217.616000 	 
4.290886	 213.660000 	 
4.294321	 215.603000 	 
4.297756	 216.136000 	 
4.301191	 213.710000 	 
4.304627	 215.183000 	 
4.308062	 224.719000 	 
4.311497	 222.066000 	 
4.314932	 222.337000 	 
4.318367	 223.690000 	 
4.321802	 223.262000 	 
4.325237	 219.074000 	 
4.328672	 221.815000 	 
4.332108	 223.634000 	 
4.335543	 221.078000 	 
4.338978	 219.107000 	 
4.342413	 223.406000 	 
4.345848	 223.790000 	 
4.349283	 220.613000 	 
4.352718	 220.342000 	 
4.356153	 219.654000 	 
4.359589	 222.408000 	 
4.363023	 220.261000 	 
4.366458	 218.989000 	 
4.369894	 222.396000 	 
4.373329	 219.295000 	 
4.376764	 218.435000 	 
4.380199	 223.002000 	 
4.383634	 221.078000 	 
4.387069	 219.005000 	 
4.390504	 215.574000 	 
4.393940	 212.896000 	 
4.397375	 212.803000 	 
4.400810	 213.709000 	 
4.404245	 214.442000 	 
4.407680	 218.407000 	 
4.411115	 220.318000 	 
4.414550	 220.175000 	 
4.417985	 213.372000 	 
4.421421	 214.594000 	 
4.424856	 219.673000 	 
4.428291	 222.218000 	 
4.431726	 216.846000 	 
4.435161	 213.756000 	 
4.438596	 215.371000 	 
4.442031	 218.446000 	 
4.445467	 217.287000 	 
4.448902	 219.287000 	 
4.452337	 216.876000 	 
4.455772	 216.047000 	 
4.459207	 212.666000 	 
4.462642	 210.672000 	 
4.466077	 209.229000 	 
4.469513	 210.042000 	 
4.472948	 210.343000 	 
4.476383	 210.630000 	 
4.479818	 209.459000 	 
4.483252	 211.654000 	 
4.486688	 212.062000 	 
4.490123	 215.694000 	 
4.493558	 220.916000 	 
4.496993	 217.326000 	 
4.500428	 216.993000 	 
4.503863	 214.578000 	 
4.507299	 212.675000 	 
4.510734	 209.864000 	 
4.514169	 213.920000 	 
4.517604	 215.051000 	 
4.521039	 213.017000 	 
4.524474	 213.713000 	 
4.527909	 218.539000 	 
4.531344	 218.890000 	 
4.534780	 212.361000 	 
4.538215	 211.254000 	 
4.541650	 216.072000 	 
4.545085	 218.503000 	 
4.548520	 215.266000 	 
4.551955	 216.463000 	 
4.555390	 216.272000 	 
4.558826	 212.693000 	 
4.562261	 215.046000 	 
4.565696	 219.020000 	 
4.569131	 219.838000 	 
4.572566	 220.596000 	 
4.576001	 219.091000 	 
4.579436	 213.869000 	 
4.582871	 211.140000 	 
4.586307	 212.422000 	 
4.589742	 214.445000 	 
4.593177	 215.761000 	 
4.596612	 218.355000 	 
4.600047	 224.389000 	 
4.603482	 225.505000 	 
4.606917	 223.901000 	 
4.610352	 223.643000 	 
4.613787	 227.114000 	 
4.617222	 230.486000 	 
4.620657	 234.519000 	 
4.624093	 240.597000 	 
4.627528	 250.185000 	 
4.630963	 264.444000 	 
4.634398	 294.235000 	 
4.637833	 355.636000 	 
4.641268	 457.222000 	 
4.644703	 625.312000 	 
4.648139	 827.386000 	 
4.651574	 990.400000 	 
4.655009	 1074.550000 	 
4.658444	 1032.410000 	 
4.661879	 914.708000 	 
4.665314	 751.747000 	 
4.668749	 602.221000 	 
4.672185	 491.095000 	 
4.675620	 407.729000 	 
4.679055	 350.434000 	 
4.682490	 321.270000 	 
4.685925	 304.589000 	 
4.689360	 290.271000 	 
4.692795	 286.644000 	 
4.696230	 285.749000 	 
4.699666	 292.217000 	 
4.703101	 315.532000 	 
4.706536	 357.838000 	 
4.709971	 426.330000 	 
4.713406	 517.648000 	 
4.716841	 594.537000 	 
4.720276	 631.360000 	 
4.723711	 592.706000 	 
4.727146	 511.575000 	 
4.730581	 418.733000 	 
4.734016	 338.725000 	 
4.737452	 287.552000 	 
4.740887	 255.829000 	 
4.744322	 239.241000 	 
4.747757	 229.738000 	 
4.751192	 224.336000 	 
4.754627	 225.943000 	 
4.758062	 231.870000 	 
4.761497	 235.011000 	 
4.764933	 230.914000 	 
4.768368	 225.834000 	 
4.771803	 223.752000 	 
4.775238	 225.563000 	 
4.778673	 224.423000 	 
4.782108	 225.024000 	 
4.785543	 222.814000 	 
4.788979	 219.455000 	 
4.792414	 215.958000 	 
4.795849	 214.068000 	 
4.799284	 214.543000 	 
4.802719	 214.186000 	 
4.806154	 212.401000 	 
4.809589	 209.752000 	 
4.813025	 210.430000 	 
4.816460	 214.251000 	 
4.819895	 219.648000 	 
4.823330	 219.657000 	 
4.826765	 220.565000 	 
4.830200	 221.877000 	 
4.833635	 216.061000 	 
4.837071	 216.476000 	 
4.840506	 218.084000 	 
4.843940	 220.008000 	 
4.847375	 221.008000 	 
4.850810	 224.460000 	 
4.854246	 237.078000 	 
4.857681	 242.862000 	 
4.861116	 257.034000 	 
4.864551	 275.820000 	 
4.867986	 288.103000 	 
4.871421	 293.662000 	 
4.874856	 290.167000 	 
4.878292	 278.360000 	 
4.881727	 267.421000 	 
4.885162	 254.078000 	 
4.888597	 246.448000 	 
4.892032	 237.683000 	 
4.895467	 228.576000 	 
4.898902	 225.262000 	 
4.902338	 222.403000 	 
4.905773	 224.509000 	 
4.909208	 228.114000 	 
4.912643	 228.704000 	 
4.916078	 233.829000 	 
4.919513	 241.236000 	 
4.922948	 256.068000 	 
4.926384	 279.408000 	 
4.929819	 323.454000 	 
4.933254	 385.705000 	 
4.936689	 456.668000 	 
4.940124	 537.473000 	 
4.943559	 583.448000 	 
4.946994	 585.151000 	 
4.950429	 540.663000 	 
4.953865	 472.493000 	 
4.957300	 404.271000 	 
4.960735	 347.420000 	 
4.964169	 310.595000 	 
4.967605	 289.127000 	 
4.971040	 276.088000 	 
4.974475	 276.687000 	 
4.977910	 281.450000 	 
4.981345	 289.490000 	 
4.984780	 302.624000 	 
4.988215	 312.478000 	 
4.991651	 321.910000 	 
4.995086	 317.941000 	 
4.998521	 308.212000 	 
5.001956	 295.344000 	 
5.005391	 277.625000 	 
5.008826	 264.675000 	 
5.012261	 252.591000 	 
5.015696	 244.182000 	 
5.019132	 237.787000 	 
5.022567	 229.772000 	 
5.026002	 222.938000 	 
5.029437	 216.121000 	 
5.032872	 215.728000 	 
5.036307	 213.065000 	 
5.039743	 213.580000 	 
5.043178	 216.587000 	 
5.046613	 218.723000 	 
5.050048	 217.862000 	 
5.053483	 214.276000 	 
5.056918	 215.389000 	 
5.060353	 220.180000 	 
5.063788	 222.961000 	 
5.067223	 222.101000 	 
5.070659	 216.632000 	 
5.074094	 215.554000 	 
5.077529	 214.991000 	 
5.080964	 218.041000 	 
5.084399	 218.920000 	 
5.087834	 216.357000 	 
5.091269	 216.027000 	 
5.094704	 215.467000 	 
5.098139	 216.293000 	 
5.101574	 219.183000 	 
5.105010	 221.676000 	 
5.108445	 219.900000 	 
5.111880	 220.272000 	 
5.115315	 221.498000 	 
5.118750	 224.641000 	 
5.122185	 229.071000 	 
5.125620	 236.878000 	 
5.129055	 253.747000 	 
